# Time (ps)      real(F_2)      im(F_2)
0.000e+00 1.000e+00 0.000e+00
1.000e-02 9.979e-01 3.798e-04
2.000e-02 9.943e-01 8.356e-04
3.000e-02 9.894e-01 1.359e-03
4.000e-02 9.834e-01 1.924e-03
5.000e-02 9.766e-01 2.498e-03
6.000e-02 9.692e-01 3.050e-03
7.000e-02 9.613e-01 3.559e-03
8.000e-02 9.532e-01 4.018e-03
9.000e-02 9.448e-01 4.437e-03
1.000e-01 9.362e-01 4.842e-03
1.100e-01 9.275e-01 5.271e-03
1.200e-01 9.186e-01 5.761e-03
1.300e-01 9.097e-01 6.344e-03
1.400e-01 9.007e-01 7.041e-03
1.500e-01 8.918e-01 7.859e-03
1.600e-01 8.830e-01 8.794e-03
1.700e-01 8.744e-01 9.832e-03
1.800e-01 8.661e-01 1.095e-02
1.900e-01 8.580e-01 1.210e-02
2.000e-01 8.501e-01 1.325e-02
2.100e-01 8.424e-01 1.433e-02
2.200e-01 8.349e-01 1.529e-02
2.300e-01 8.276e-01 1.610e-02
2.400e-01 8.204e-01 1.672e-02
2.500e-01 8.134e-01 1.716e-02
2.600e-01 8.064e-01 1.743e-02
2.700e-01 7.995e-01 1.755e-02
2.800e-01 7.928e-01 1.756e-02
2.900e-01 7.863e-01 1.747e-02
3.000e-01 7.801e-01 1.731e-02
3.100e-01 7.741e-01 1.710e-02
3.200e-01 7.683e-01 1.684e-02
3.300e-01 7.628e-01 1.655e-02
3.400e-01 7.576e-01 1.623e-02
3.500e-01 7.525e-01 1.590e-02
3.600e-01 7.477e-01 1.558e-02
3.700e-01 7.430e-01 1.529e-02
3.800e-01 7.384e-01 1.506e-02
3.900e-01 7.340e-01 1.492e-02
4.000e-01 7.296e-01 1.492e-02
4.100e-01 7.252e-01 1.508e-02
4.200e-01 7.209e-01 1.542e-02
4.300e-01 7.166e-01 1.591e-02
4.400e-01 7.123e-01 1.649e-02
4.500e-01 7.081e-01 1.710e-02
4.600e-01 7.039e-01 1.769e-02
4.700e-01 6.997e-01 1.824e-02
4.800e-01 6.956e-01 1.874e-02
4.900e-01 6.913e-01 1.921e-02
5.000e-01 6.871e-01 1.967e-02
5.100e-01 6.828e-01 2.015e-02
5.200e-01 6.785e-01 2.064e-02
5.300e-01 6.742e-01 2.115e-02
5.400e-01 6.698e-01 2.166e-02
5.500e-01 6.656e-01 2.215e-02
5.600e-01 6.613e-01 2.258e-02
5.700e-01 6.570e-01 2.296e-02
5.800e-01 6.527e-01 2.326e-02
5.900e-01 6.483e-01 2.350e-02
6.000e-01 6.439e-01 2.368e-02
6.100e-01 6.394e-01 2.378e-02
6.200e-01 6.348e-01 2.378e-02
6.300e-01 6.302e-01 2.365e-02
6.400e-01 6.255e-01 2.336e-02
6.500e-01 6.209e-01 2.287e-02
6.600e-01 6.163e-01 2.220e-02
6.700e-01 6.117e-01 2.134e-02
6.800e-01 6.073e-01 2.032e-02
6.900e-01 6.029e-01 1.917e-02
7.000e-01 5.986e-01 1.790e-02
7.100e-01 5.945e-01 1.656e-02
7.200e-01 5.904e-01 1.516e-02
7.300e-01 5.865e-01 1.373e-02
7.400e-01 5.826e-01 1.229e-02
7.500e-01 5.787e-01 1.085e-02
7.600e-01 5.748e-01 9.426e-03
7.700e-01 5.709e-01 8.045e-03
7.800e-01 5.670e-01 6.748e-03
7.900e-01 5.631e-01 5.578e-03
8.000e-01 5.593e-01 4.575e-03
8.100e-01 5.555e-01 3.767e-03
8.200e-01 5.518e-01 3.164e-03
8.300e-01 5.481e-01 2.755e-03
8.400e-01 5.446e-01 2.517e-03
8.500e-01 5.411e-01 2.417e-03
8.600e-01 5.376e-01 2.431e-03
8.700e-01 5.341e-01 2.540e-03
8.800e-01 5.306e-01 2.741e-03
8.900e-01 5.271e-01 3.037e-03
9.000e-01 5.237e-01 3.430e-03
9.100e-01 5.203e-01 3.916e-03
9.200e-01 5.170e-01 4.476e-03
9.300e-01 5.139e-01 5.085e-03
9.400e-01 5.108e-01 5.708e-03
9.500e-01 5.080e-01 6.313e-03
9.600e-01 5.052e-01 6.867e-03
9.700e-01 5.025e-01 7.340e-03
9.800e-01 5.000e-01 7.705e-03
9.900e-01 4.975e-01 7.938e-03
1.000e+00 4.949e-01 8.015e-03
1.010e+00 4.924e-01 7.923e-03
1.020e+00 4.898e-01 7.660e-03
1.030e+00 4.871e-01 7.242e-03
1.040e+00 4.844e-01 6.704e-03
1.050e+00 4.817e-01 6.095e-03
1.060e+00 4.791e-01 5.465e-03
1.070e+00 4.765e-01 4.856e-03
1.080e+00 4.739e-01 4.299e-03
1.090e+00 4.715e-01 3.814e-03
1.100e+00 4.691e-01 3.416e-03
1.110e+00 4.669e-01 3.118e-03
1.120e+00 4.648e-01 2.934e-03
1.130e+00 4.627e-01 2.875e-03
1.140e+00 4.608e-01 2.937e-03
1.150e+00 4.589e-01 3.091e-03
1.160e+00 4.570e-01 3.285e-03
1.170e+00 4.551e-01 3.454e-03
1.180e+00 4.533e-01 3.544e-03
1.190e+00 4.515e-01 3.529e-03
1.200e+00 4.497e-01 3.414e-03
1.210e+00 4.479e-01 3.224e-03
1.220e+00 4.462e-01 2.987e-03
1.230e+00 4.444e-01 2.727e-03
1.240e+00 4.425e-01 2.465e-03
1.250e+00 4.405e-01 2.215e-03
1.260e+00 4.384e-01 1.984e-03
1.270e+00 4.363e-01 1.771e-03
1.280e+00 4.340e-01 1.569e-03
1.290e+00 4.316e-01 1.380e-03
1.300e+00 4.291e-01 1.214e-03
1.310e+00 4.266e-01 1.091e-03
1.320e+00 4.240e-01 1.034e-03
1.330e+00 4.214e-01 1.054e-03
1.340e+00 4.188e-01 1.155e-03
1.350e+00 4.163e-01 1.325e-03
1.360e+00 4.137e-01 1.544e-03
1.370e+00 4.113e-01 1.791e-03
1.380e+00 4.089e-01 2.038e-03
1.390e+00 4.067e-01 2.256e-03
1.400e+00 4.045e-01 2.411e-03
1.410e+00 4.024e-01 2.464e-03
1.420e+00 4.003e-01 2.382e-03
1.430e+00 3.982e-01 2.146e-03
1.440e+00 3.960e-01 1.761e-03
1.450e+00 3.937e-01 1.247e-03
1.460e+00 3.914e-01 6.424e-04
1.470e+00 3.890e-01 -1.857e-06
1.480e+00 3.867e-01 -6.303e-04
1.490e+00 3.843e-01 -1.190e-03
1.500e+00 3.820e-01 -1.637e-03
1.510e+00 3.797e-01 -1.942e-03
1.520e+00 3.774e-01 -2.089e-03
1.530e+00 3.751e-01 -2.085e-03
1.540e+00 3.729e-01 -1.951e-03
1.550e+00 3.708e-01 -1.713e-03
1.560e+00 3.688e-01 -1.401e-03
1.570e+00 3.670e-01 -1.041e-03
1.580e+00 3.653e-01 -6.543e-04
1.590e+00 3.637e-01 -2.615e-04
1.600e+00 3.621e-01 1.233e-04
1.610e+00 3.606e-01 4.922e-04
1.620e+00 3.590e-01 8.393e-04
1.630e+00 3.575e-01 1.157e-03
1.640e+00 3.558e-01 1.438e-03
1.650e+00 3.541e-01 1.675e-03
1.660e+00 3.524e-01 1.868e-03
1.670e+00 3.505e-01 2.026e-03
1.680e+00 3.485e-01 2.163e-03
1.690e+00 3.463e-01 2.297e-03
1.700e+00 3.440e-01 2.437e-03
1.710e+00 3.416e-01 2.581e-03
1.720e+00 3.391e-01 2.722e-03
1.730e+00 3.365e-01 2.847e-03
1.740e+00 3.339e-01 2.951e-03
1.750e+00 3.313e-01 3.038e-03
1.760e+00 3.288e-01 3.121e-03
1.770e+00 3.264e-01 3.224e-03
1.780e+00 3.242e-01 3.367e-03
1.790e+00 3.221e-01 3.562e-03
1.800e+00 3.202e-01 3.802e-03
1.810e+00 3.183e-01 4.068e-03
1.820e+00 3.166e-01 4.330e-03
1.830e+00 3.149e-01 4.561e-03
1.840e+00 3.134e-01 4.742e-03
1.850e+00 3.120e-01 4.865e-03
1.860e+00 3.106e-01 4.926e-03
1.870e+00 3.094e-01 4.917e-03
1.880e+00 3.083e-01 4.823e-03
1.890e+00 3.072e-01 4.619e-03
1.900e+00 3.062e-01 4.281e-03
1.910e+00 3.053e-01 3.793e-03
1.920e+00 3.044e-01 3.150e-03
1.930e+00 3.035e-01 2.363e-03
1.940e+00 3.026e-01 1.448e-03
1.950e+00 3.016e-01 4.299e-04
1.960e+00 3.006e-01 -6.676e-04
1.970e+00 2.995e-01 -1.816e-03
1.980e+00 2.983e-01 -2.987e-03
1.990e+00 2.970e-01 -4.156e-03
2.000e+00 2.957e-01 -5.301e-03
2.010e+00 2.943e-01 -6.406e-03
2.020e+00 2.929e-01 -7.449e-03
2.030e+00 2.915e-01 -8.414e-03
2.040e+00 2.902e-01 -9.289e-03
2.050e+00 2.889e-01 -1.007e-02
2.060e+00 2.876e-01 -1.077e-02
2.070e+00 2.864e-01 -1.140e-02
2.080e+00 2.853e-01 -1.193e-02
2.090e+00 2.842e-01 -1.237e-02
2.100e+00 2.832e-01 -1.269e-02
2.110e+00 2.822e-01 -1.289e-02
2.120e+00 2.812e-01 -1.297e-02
2.130e+00 2.802e-01 -1.294e-02
2.140e+00 2.793e-01 -1.279e-02
2.150e+00 2.784e-01 -1.255e-02
2.160e+00 2.775e-01 -1.221e-02
2.170e+00 2.766e-01 -1.181e-02
2.180e+00 2.756e-01 -1.138e-02
2.190e+00 2.745e-01 -1.095e-02
2.200e+00 2.734e-01 -1.057e-02
2.210e+00 2.721e-01 -1.027e-02
2.220e+00 2.707e-01 -1.006e-02
2.230e+00 2.693e-01 -9.922e-03
2.240e+00 2.678e-01 -9.816e-03
2.250e+00 2.662e-01 -9.683e-03
2.260e+00 2.646e-01 -9.458e-03
2.270e+00 2.629e-01 -9.077e-03
2.280e+00 2.613e-01 -8.498e-03
2.290e+00 2.596e-01 -7.703e-03
2.300e+00 2.580e-01 -6.713e-03
2.310e+00 2.564e-01 -5.584e-03
2.320e+00 2.547e-01 -4.396e-03
2.330e+00 2.531e-01 -3.235e-03
2.340e+00 2.516e-01 -2.171e-03
2.350e+00 2.501e-01 -1.243e-03
2.360e+00 2.488e-01 -4.591e-04
2.370e+00 2.477e-01 1.919e-04
2.380e+00 2.469e-01 7.315e-04
2.390e+00 2.462e-01 1.182e-03
2.400e+00 2.457e-01 1.562e-03
2.410e+00 2.453e-01 1.889e-03
2.420e+00 2.451e-01 2.172e-03
2.430e+00 2.449e-01 2.415e-03
2.440e+00 2.448e-01 2.613e-03
2.450e+00 2.446e-01 2.755e-03
2.460e+00 2.444e-01 2.831e-03
2.470e+00 2.442e-01 2.832e-03
2.480e+00 2.439e-01 2.758e-03
2.490e+00 2.436e-01 2.609e-03
2.500e+00 2.433e-01 2.390e-03
2.510e+00 2.429e-01 2.101e-03
2.520e+00 2.425e-01 1.743e-03
2.530e+00 2.419e-01 1.316e-03
2.540e+00 2.413e-01 8.260e-04
2.550e+00 2.405e-01 2.830e-04
2.560e+00 2.395e-01 -2.940e-04
2.570e+00 2.383e-01 -8.764e-04
2.580e+00 2.370e-01 -1.427e-03
2.590e+00 2.356e-01 -1.902e-03
2.600e+00 2.341e-01 -2.262e-03
2.610e+00 2.325e-01 -2.476e-03
2.620e+00 2.309e-01 -2.530e-03
2.630e+00 2.292e-01 -2.432e-03
2.640e+00 2.274e-01 -2.205e-03
2.650e+00 2.255e-01 -1.882e-03
2.660e+00 2.236e-01 -1.507e-03
2.670e+00 2.216e-01 -1.127e-03
2.680e+00 2.197e-01 -7.855e-04
2.690e+00 2.178e-01 -5.160e-04
2.700e+00 2.159e-01 -3.407e-04
2.710e+00 2.142e-01 -2.689e-04
2.720e+00 2.126e-01 -2.980e-04
2.730e+00 2.110e-01 -4.148e-04
2.740e+00 2.097e-01 -5.987e-04
2.750e+00 2.084e-01 -8.265e-04
2.760e+00 2.073e-01 -1.077e-03
2.770e+00 2.063e-01 -1.336e-03
2.780e+00 2.055e-01 -1.596e-03
2.790e+00 2.046e-01 -1.854e-03
2.800e+00 2.039e-01 -2.116e-03
2.810e+00 2.031e-01 -2.387e-03
2.820e+00 2.023e-01 -2.675e-03
2.830e+00 2.014e-01 -2.978e-03
2.840e+00 2.003e-01 -3.289e-03
2.850e+00 1.992e-01 -3.595e-03
2.860e+00 1.980e-01 -3.876e-03
2.870e+00 1.967e-01 -4.117e-03
2.880e+00 1.955e-01 -4.300e-03
2.890e+00 1.942e-01 -4.412e-03
2.900e+00 1.930e-01 -4.439e-03
2.910e+00 1.919e-01 -4.373e-03
2.920e+00 1.908e-01 -4.208e-03
2.930e+00 1.898e-01 -3.950e-03
2.940e+00 1.888e-01 -3.614e-03
2.950e+00 1.879e-01 -3.224e-03
2.960e+00 1.871e-01 -2.805e-03
2.970e+00 1.864e-01 -2.372e-03
2.980e+00 1.857e-01 -1.931e-03
2.990e+00 1.852e-01 -1.478e-03
3.000e+00 1.847e-01 -1.006e-03
3.010e+00 1.843e-01 -5.160e-04
3.020e+00 1.840e-01 -2.088e-05
3.030e+00 1.837e-01 4.596e-04
3.040e+00 1.835e-01 9.018e-04
3.050e+00 1.832e-01 1.282e-03
3.060e+00 1.830e-01 1.580e-03
3.070e+00 1.827e-01 1.778e-03
3.080e+00 1.824e-01 1.870e-03
3.090e+00 1.819e-01 1.858e-03
3.100e+00 1.814e-01 1.751e-03
3.110e+00 1.807e-01 1.559e-03
3.120e+00 1.799e-01 1.292e-03
3.130e+00 1.791e-01 9.606e-04
3.140e+00 1.781e-01 5.831e-04
3.150e+00 1.772e-01 1.780e-04
3.160e+00 1.763e-01 -2.387e-04
3.170e+00 1.753e-01 -6.584e-04
3.180e+00 1.744e-01 -1.080e-03
3.190e+00 1.736e-01 -1.506e-03
3.200e+00 1.728e-01 -1.937e-03
3.210e+00 1.721e-01 -2.370e-03
3.220e+00 1.714e-01 -2.795e-03
3.230e+00 1.709e-01 -3.195e-03
3.240e+00 1.704e-01 -3.553e-03
3.250e+00 1.700e-01 -3.844e-03
3.260e+00 1.697e-01 -4.051e-03
3.270e+00 1.694e-01 -4.167e-03
3.280e+00 1.691e-01 -4.185e-03
3.290e+00 1.687e-01 -4.099e-03
3.300e+00 1.683e-01 -3.902e-03
3.310e+00 1.680e-01 -3.597e-03
3.320e+00 1.677e-01 -3.209e-03
3.330e+00 1.674e-01 -2.779e-03
3.340e+00 1.671e-01 -2.352e-03
3.350e+00 1.669e-01 -1.966e-03
3.360e+00 1.667e-01 -1.640e-03
3.370e+00 1.664e-01 -1.375e-03
3.380e+00 1.662e-01 -1.159e-03
3.390e+00 1.660e-01 -9.727e-04
3.400e+00 1.657e-01 -7.980e-04
3.410e+00 1.654e-01 -6.219e-04
3.420e+00 1.651e-01 -4.341e-04
3.430e+00 1.647e-01 -2.252e-04
3.440e+00 1.644e-01 1.210e-05
3.450e+00 1.640e-01 2.831e-04
3.460e+00 1.637e-01 5.935e-04
3.470e+00 1.634e-01 9.537e-04
3.480e+00 1.631e-01 1.378e-03
3.490e+00 1.629e-01 1.880e-03
3.500e+00 1.628e-01 2.462e-03
3.510e+00 1.627e-01 3.117e-03
3.520e+00 1.626e-01 3.834e-03
3.530e+00 1.625e-01 4.600e-03
3.540e+00 1.624e-01 5.398e-03
3.550e+00 1.624e-01 6.206e-03
3.560e+00 1.623e-01 7.000e-03
3.570e+00 1.623e-01 7.766e-03
3.580e+00 1.623e-01 8.503e-03
3.590e+00 1.624e-01 9.223e-03
3.600e+00 1.623e-01 9.946e-03
3.610e+00 1.622e-01 1.069e-02
3.620e+00 1.620e-01 1.145e-02
3.630e+00 1.617e-01 1.222e-02
3.640e+00 1.614e-01 1.297e-02
3.650e+00 1.609e-01 1.369e-02
3.660e+00 1.605e-01 1.436e-02
3.670e+00 1.600e-01 1.495e-02
3.680e+00 1.595e-01 1.548e-02
3.690e+00 1.590e-01 1.592e-02
3.700e+00 1.585e-01 1.629e-02
3.710e+00 1.580e-01 1.659e-02
3.720e+00 1.576e-01 1.680e-02
3.730e+00 1.571e-01 1.695e-02
3.740e+00 1.567e-01 1.702e-02
3.750e+00 1.563e-01 1.703e-02
3.760e+00 1.559e-01 1.698e-02
3.770e+00 1.555e-01 1.688e-02
3.780e+00 1.551e-01 1.676e-02
3.790e+00 1.546e-01 1.661e-02
3.800e+00 1.542e-01 1.645e-02
3.810e+00 1.537e-01 1.626e-02
3.820e+00 1.531e-01 1.605e-02
3.830e+00 1.526e-01 1.580e-02
3.840e+00 1.520e-01 1.552e-02
3.850e+00 1.514e-01 1.521e-02
3.860e+00 1.508e-01 1.489e-02
3.870e+00 1.502e-01 1.461e-02
3.880e+00 1.496e-01 1.439e-02
3.890e+00 1.489e-01 1.430e-02
3.900e+00 1.482e-01 1.435e-02
3.910e+00 1.474e-01 1.458e-02
3.920e+00 1.467e-01 1.496e-02
3.930e+00 1.458e-01 1.549e-02
3.940e+00 1.450e-01 1.612e-02
3.950e+00 1.441e-01 1.680e-02
3.960e+00 1.433e-01 1.750e-02
3.970e+00 1.425e-01 1.815e-02
3.980e+00 1.418e-01 1.873e-02
3.990e+00 1.412e-01 1.920e-02
4.000e+00 1.407e-01 1.957e-02
4.010e+00 1.405e-01 1.983e-02
4.020e+00 1.404e-01 2.002e-02
4.030e+00 1.405e-01 2.014e-02
4.040e+00 1.406e-01 2.020e-02
4.050e+00 1.408e-01 2.020e-02
4.060e+00 1.411e-01 2.014e-02
4.070e+00 1.412e-01 2.000e-02
4.080e+00 1.413e-01 1.979e-02
4.090e+00 1.412e-01 1.950e-02
4.100e+00 1.411e-01 1.915e-02
4.110e+00 1.407e-01 1.876e-02
4.120e+00 1.402e-01 1.835e-02
4.130e+00 1.396e-01 1.795e-02
4.140e+00 1.389e-01 1.757e-02
4.150e+00 1.380e-01 1.723e-02
4.160e+00 1.372e-01 1.693e-02
4.170e+00 1.363e-01 1.666e-02
4.180e+00 1.354e-01 1.642e-02
4.190e+00 1.345e-01 1.619e-02
4.200e+00 1.336e-01 1.595e-02
4.210e+00 1.328e-01 1.572e-02
4.220e+00 1.319e-01 1.548e-02
4.230e+00 1.311e-01 1.525e-02
4.240e+00 1.304e-01 1.503e-02
4.250e+00 1.297e-01 1.483e-02
4.260e+00 1.291e-01 1.465e-02
4.270e+00 1.286e-01 1.448e-02
4.280e+00 1.281e-01 1.433e-02
4.290e+00 1.276e-01 1.418e-02
4.300e+00 1.272e-01 1.401e-02
4.310e+00 1.267e-01 1.383e-02
4.320e+00 1.264e-01 1.363e-02
4.330e+00 1.260e-01 1.343e-02
4.340e+00 1.256e-01 1.327e-02
4.350e+00 1.253e-01 1.317e-02
4.360e+00 1.249e-01 1.318e-02
4.370e+00 1.245e-01 1.329e-02
4.380e+00 1.242e-01 1.347e-02
4.390e+00 1.238e-01 1.369e-02
4.400e+00 1.234e-01 1.389e-02
4.410e+00 1.230e-01 1.406e-02
4.420e+00 1.226e-01 1.418e-02
4.430e+00 1.221e-01 1.423e-02
4.440e+00 1.215e-01 1.424e-02
4.450e+00 1.209e-01 1.419e-02
4.460e+00 1.202e-01 1.411e-02
4.470e+00 1.194e-01 1.401e-02
4.480e+00 1.186e-01 1.391e-02
4.490e+00 1.178e-01 1.383e-02
4.500e+00 1.170e-01 1.377e-02
4.510e+00 1.161e-01 1.376e-02
4.520e+00 1.152e-01 1.378e-02
4.530e+00 1.142e-01 1.383e-02
4.540e+00 1.133e-01 1.391e-02
4.550e+00 1.123e-01 1.401e-02
4.560e+00 1.113e-01 1.412e-02
4.570e+00 1.103e-01 1.423e-02
4.580e+00 1.094e-01 1.436e-02
4.590e+00 1.084e-01 1.448e-02
4.600e+00 1.074e-01 1.460e-02
4.610e+00 1.065e-01 1.470e-02
4.620e+00 1.055e-01 1.477e-02
4.630e+00 1.046e-01 1.478e-02
4.640e+00 1.038e-01 1.471e-02
4.650e+00 1.030e-01 1.455e-02
4.660e+00 1.023e-01 1.432e-02
4.670e+00 1.016e-01 1.401e-02
4.680e+00 1.010e-01 1.367e-02
4.690e+00 1.004e-01 1.331e-02
4.700e+00 9.986e-02 1.297e-02
4.710e+00 9.938e-02 1.266e-02
4.720e+00 9.894e-02 1.238e-02
4.730e+00 9.853e-02 1.215e-02
4.740e+00 9.815e-02 1.197e-02
4.750e+00 9.780e-02 1.184e-02
4.760e+00 9.746e-02 1.178e-02
4.770e+00 9.713e-02 1.178e-02
4.780e+00 9.681e-02 1.184e-02
4.790e+00 9.650e-02 1.197e-02
4.800e+00 9.621e-02 1.215e-02
4.810e+00 9.595e-02 1.238e-02
4.820e+00 9.575e-02 1.266e-02
4.830e+00 9.563e-02 1.299e-02
4.840e+00 9.560e-02 1.334e-02
4.850e+00 9.569e-02 1.371e-02
4.860e+00 9.587e-02 1.405e-02
4.870e+00 9.612e-02 1.435e-02
4.880e+00 9.639e-02 1.458e-02
4.890e+00 9.663e-02 1.472e-02
4.900e+00 9.681e-02 1.478e-02
4.910e+00 9.690e-02 1.476e-02
4.920e+00 9.689e-02 1.467e-02
4.930e+00 9.677e-02 1.454e-02
4.940e+00 9.653e-02 1.436e-02
4.950e+00 9.619e-02 1.416e-02
4.960e+00 9.574e-02 1.393e-02
4.970e+00 9.518e-02 1.367e-02
4.980e+00 9.451e-02 1.337e-02
4.990e+00 9.372e-02 1.302e-02
5.000e+00 9.284e-02 1.262e-02
5.010e+00 9.189e-02 1.215e-02
5.020e+00 9.092e-02 1.163e-02
5.030e+00 8.996e-02 1.106e-02
5.040e+00 8.907e-02 1.047e-02
5.050e+00 8.827e-02 9.894e-03
5.060e+00 8.761e-02 9.346e-03
5.070e+00 8.709e-02 8.849e-03
5.080e+00 8.669e-02 8.417e-03
5.090e+00 8.637e-02 8.054e-03
5.100e+00 8.611e-02 7.761e-03
5.110e+00 8.587e-02 7.532e-03
5.120e+00 8.564e-02 7.360e-03
5.130e+00 8.540e-02 7.231e-03
5.140e+00 8.513e-02 7.123e-03
5.150e+00 8.482e-02 7.006e-03
5.160e+00 8.446e-02 6.849e-03
5.170e+00 8.405e-02 6.628e-03
5.180e+00 8.358e-02 6.332e-03
5.190e+00 8.308e-02 5.974e-03
5.200e+00 8.256e-02 5.577e-03
5.210e+00 8.204e-02 5.176e-03
5.220e+00 8.154e-02 4.803e-03
5.230e+00 8.106e-02 4.485e-03
5.240e+00 8.060e-02 4.249e-03
5.250e+00 8.017e-02 4.120e-03
5.260e+00 7.976e-02 4.117e-03
5.270e+00 7.937e-02 4.257e-03
5.280e+00 7.900e-02 4.547e-03
5.290e+00 7.865e-02 4.984e-03
5.300e+00 7.832e-02 5.555e-03
5.310e+00 7.798e-02 6.236e-03
5.320e+00 7.763e-02 6.991e-03
5.330e+00 7.726e-02 7.780e-03
5.340e+00 7.687e-02 8.564e-03
5.350e+00 7.647e-02 9.320e-03
5.360e+00 7.607e-02 1.003e-02
5.370e+00 7.568e-02 1.071e-02
5.380e+00 7.531e-02 1.134e-02
5.390e+00 7.495e-02 1.193e-02
5.400e+00 7.461e-02 1.249e-02
5.410e+00 7.429e-02 1.299e-02
5.420e+00 7.398e-02 1.343e-02
5.430e+00 7.367e-02 1.378e-02
5.440e+00 7.337e-02 1.400e-02
5.450e+00 7.306e-02 1.404e-02
5.460e+00 7.275e-02 1.387e-02
5.470e+00 7.246e-02 1.347e-02
5.480e+00 7.218e-02 1.288e-02
5.490e+00 7.194e-02 1.214e-02
5.500e+00 7.174e-02 1.132e-02
5.510e+00 7.159e-02 1.044e-02
5.520e+00 7.147e-02 9.559e-03
5.530e+00 7.140e-02 8.674e-03
5.540e+00 7.134e-02 7.797e-03
5.550e+00 7.131e-02 6.941e-03
5.560e+00 7.127e-02 6.122e-03
5.570e+00 7.121e-02 5.374e-03
5.580e+00 7.112e-02 4.739e-03
5.590e+00 7.097e-02 4.258e-03
5.600e+00 7.075e-02 3.953e-03
5.610e+00 7.046e-02 3.811e-03
5.620e+00 7.011e-02 3.789e-03
5.630e+00 6.974e-02 3.827e-03
5.640e+00 6.934e-02 3.863e-03
5.650e+00 6.896e-02 3.847e-03
5.660e+00 6.858e-02 3.755e-03
5.670e+00 6.821e-02 3.589e-03
5.680e+00 6.783e-02 3.371e-03
5.690e+00 6.742e-02 3.128e-03
5.700e+00 6.696e-02 2.887e-03
5.710e+00 6.644e-02 2.671e-03
5.720e+00 6.584e-02 2.493e-03
5.730e+00 6.518e-02 2.367e-03
5.740e+00 6.448e-02 2.301e-03
5.750e+00 6.375e-02 2.299e-03
5.760e+00 6.302e-02 2.360e-03
5.770e+00 6.231e-02 2.473e-03
5.780e+00 6.164e-02 2.623e-03
5.790e+00 6.101e-02 2.790e-03
5.800e+00 6.043e-02 2.958e-03
5.810e+00 5.989e-02 3.116e-03
5.820e+00 5.940e-02 3.261e-03
5.830e+00 5.895e-02 3.392e-03
5.840e+00 5.857e-02 3.518e-03
5.850e+00 5.826e-02 3.649e-03
5.860e+00 5.803e-02 3.799e-03
5.870e+00 5.789e-02 3.979e-03
5.880e+00 5.783e-02 4.200e-03
5.890e+00 5.785e-02 4.471e-03
5.900e+00 5.793e-02 4.795e-03
5.910e+00 5.805e-02 5.172e-03
5.920e+00 5.821e-02 5.595e-03
5.930e+00 5.839e-02 6.052e-03
5.940e+00 5.860e-02 6.520e-03
5.950e+00 5.883e-02 6.974e-03
5.960e+00 5.906e-02 7.390e-03
5.970e+00 5.929e-02 7.758e-03
5.980e+00 5.950e-02 8.077e-03
5.990e+00 5.969e-02 8.351e-03
6.000e+00 5.984e-02 8.580e-03
6.010e+00 5.997e-02 8.757e-03
6.020e+00 6.006e-02 8.875e-03
6.030e+00 6.014e-02 8.924e-03
6.040e+00 6.020e-02 8.897e-03
6.050e+00 6.024e-02 8.785e-03
6.060e+00 6.024e-02 8.577e-03
6.070e+00 6.019e-02 8.262e-03
6.080e+00 6.009e-02 7.839e-03
6.090e+00 5.993e-02 7.320e-03
6.100e+00 5.973e-02 6.730e-03
6.110e+00 5.952e-02 6.098e-03
6.120e+00 5.932e-02 5.452e-03
6.130e+00 5.914e-02 4.812e-03
6.140e+00 5.899e-02 4.192e-03
6.150e+00 5.887e-02 3.597e-03
6.160e+00 5.879e-02 3.032e-03
6.170e+00 5.875e-02 2.498e-03
6.180e+00 5.873e-02 2.001e-03
6.190e+00 5.873e-02 1.553e-03
6.200e+00 5.873e-02 1.166e-03
6.210e+00 5.870e-02 8.484e-04
6.220e+00 5.863e-02 6.070e-04
6.230e+00 5.849e-02 4.422e-04
6.240e+00 5.826e-02 3.508e-04
6.250e+00 5.797e-02 3.262e-04
6.260e+00 5.764e-02 3.596e-04
6.270e+00 5.729e-02 4.412e-04
6.280e+00 5.697e-02 5.615e-04
6.290e+00 5.669e-02 7.130e-04
6.300e+00 5.649e-02 8.896e-04
6.310e+00 5.636e-02 1.086e-03
6.320e+00 5.632e-02 1.299e-03
6.330e+00 5.634e-02 1.528e-03
6.340e+00 5.643e-02 1.776e-03
6.350e+00 5.656e-02 2.044e-03
6.360e+00 5.669e-02 2.329e-03
6.370e+00 5.680e-02 2.626e-03
6.380e+00 5.685e-02 2.930e-03
6.390e+00 5.682e-02 3.238e-03
6.400e+00 5.669e-02 3.547e-03
6.410e+00 5.645e-02 3.857e-03
6.420e+00 5.611e-02 4.170e-03
6.430e+00 5.568e-02 4.486e-03
6.440e+00 5.519e-02 4.800e-03
6.450e+00 5.467e-02 5.101e-03
6.460e+00 5.416e-02 5.375e-03
6.470e+00 5.367e-02 5.608e-03
6.480e+00 5.323e-02 5.785e-03
6.490e+00 5.284e-02 5.897e-03
6.500e+00 5.251e-02 5.940e-03
6.510e+00 5.223e-02 5.914e-03
6.520e+00 5.200e-02 5.819e-03
6.530e+00 5.181e-02 5.657e-03
6.540e+00 5.166e-02 5.435e-03
6.550e+00 5.156e-02 5.163e-03
6.560e+00 5.153e-02 4.863e-03
6.570e+00 5.158e-02 4.563e-03
6.580e+00 5.172e-02 4.303e-03
6.590e+00 5.196e-02 4.122e-03
6.600e+00 5.229e-02 4.056e-03
