# Time (ps)      real(F_1)      im(F_1)
0.000e+00 1.000e+00 0.000e+00
1.000e-02 9.999e-01 9.523e-04
2.000e-02 9.989e-01 1.837e-03
3.000e-02 9.972e-01 2.632e-03
4.000e-02 9.948e-01 3.330e-03
5.000e-02 9.915e-01 3.928e-03
6.000e-02 9.874e-01 4.429e-03
7.000e-02 9.826e-01 4.840e-03
8.000e-02 9.769e-01 5.164e-03
9.000e-02 9.704e-01 5.408e-03
1.000e-01 9.631e-01 5.577e-03
1.100e-01 9.551e-01 5.679e-03
1.200e-01 9.464e-01 5.725e-03
1.300e-01 9.369e-01 5.730e-03
1.400e-01 9.269e-01 5.716e-03
1.500e-01 9.164e-01 5.701e-03
1.600e-01 9.054e-01 5.707e-03
1.700e-01 8.940e-01 5.751e-03
1.800e-01 8.824e-01 5.845e-03
1.900e-01 8.705e-01 5.998e-03
2.000e-01 8.584e-01 6.216e-03
2.100e-01 8.463e-01 6.497e-03
2.200e-01 8.341e-01 6.840e-03
2.300e-01 8.219e-01 7.239e-03
2.400e-01 8.097e-01 7.690e-03
2.500e-01 7.976e-01 8.190e-03
2.600e-01 7.855e-01 8.737e-03
2.700e-01 7.734e-01 9.331e-03
2.800e-01 7.613e-01 9.968e-03
2.900e-01 7.493e-01 1.064e-02
3.000e-01 7.374e-01 1.133e-02
3.100e-01 7.256e-01 1.202e-02
3.200e-01 7.139e-01 1.270e-02
3.300e-01 7.025e-01 1.334e-02
3.400e-01 6.912e-01 1.393e-02
3.500e-01 6.802e-01 1.446e-02
3.600e-01 6.693e-01 1.493e-02
3.700e-01 6.587e-01 1.533e-02
3.800e-01 6.483e-01 1.567e-02
3.900e-01 6.382e-01 1.596e-02
4.000e-01 6.282e-01 1.620e-02
4.100e-01 6.184e-01 1.639e-02
4.200e-01 6.088e-01 1.653e-02
4.300e-01 5.993e-01 1.661e-02
4.400e-01 5.899e-01 1.664e-02
4.500e-01 5.806e-01 1.660e-02
4.600e-01 5.714e-01 1.651e-02
4.700e-01 5.624e-01 1.637e-02
4.800e-01 5.535e-01 1.620e-02
4.900e-01 5.447e-01 1.600e-02
5.000e-01 5.361e-01 1.578e-02
5.100e-01 5.276e-01 1.554e-02
5.200e-01 5.193e-01 1.526e-02
5.300e-01 5.112e-01 1.494e-02
5.400e-01 5.032e-01 1.457e-02
5.500e-01 4.954e-01 1.414e-02
5.600e-01 4.878e-01 1.365e-02
5.700e-01 4.803e-01 1.310e-02
5.800e-01 4.730e-01 1.248e-02
5.900e-01 4.659e-01 1.180e-02
6.000e-01 4.590e-01 1.107e-02
6.100e-01 4.521e-01 1.029e-02
6.200e-01 4.454e-01 9.476e-03
6.300e-01 4.388e-01 8.647e-03
6.400e-01 4.322e-01 7.822e-03
6.500e-01 4.257e-01 7.021e-03
6.600e-01 4.193e-01 6.269e-03
6.700e-01 4.129e-01 5.585e-03
6.800e-01 4.065e-01 4.986e-03
6.900e-01 4.002e-01 4.481e-03
7.000e-01 3.940e-01 4.069e-03
7.100e-01 3.878e-01 3.743e-03
7.200e-01 3.818e-01 3.492e-03
7.300e-01 3.759e-01 3.304e-03
7.400e-01 3.701e-01 3.164e-03
7.500e-01 3.644e-01 3.057e-03
7.600e-01 3.589e-01 2.970e-03
7.700e-01 3.536e-01 2.888e-03
7.800e-01 3.483e-01 2.795e-03
7.900e-01 3.432e-01 2.679e-03
8.000e-01 3.382e-01 2.528e-03
8.100e-01 3.334e-01 2.331e-03
8.200e-01 3.286e-01 2.086e-03
8.300e-01 3.241e-01 1.792e-03
8.400e-01 3.196e-01 1.453e-03
8.500e-01 3.153e-01 1.074e-03
8.600e-01 3.111e-01 6.640e-04
8.700e-01 3.070e-01 2.336e-04
8.800e-01 3.030e-01 -2.004e-04
8.900e-01 2.991e-01 -6.151e-04
9.000e-01 2.952e-01 -9.826e-04
9.100e-01 2.913e-01 -1.277e-03
9.200e-01 2.874e-01 -1.482e-03
9.300e-01 2.834e-01 -1.600e-03
9.400e-01 2.795e-01 -1.649e-03
9.500e-01 2.755e-01 -1.654e-03
9.600e-01 2.715e-01 -1.638e-03
9.700e-01 2.676e-01 -1.615e-03
9.800e-01 2.637e-01 -1.591e-03
9.900e-01 2.598e-01 -1.568e-03
1.000e+00 2.559e-01 -1.542e-03
1.010e+00 2.521e-01 -1.509e-03
1.020e+00 2.483e-01 -1.466e-03
1.030e+00 2.446e-01 -1.411e-03
1.040e+00 2.409e-01 -1.342e-03
1.050e+00 2.373e-01 -1.260e-03
1.060e+00 2.337e-01 -1.165e-03
1.070e+00 2.301e-01 -1.059e-03
1.080e+00 2.266e-01 -9.457e-04
1.090e+00 2.232e-01 -8.283e-04
1.100e+00 2.198e-01 -7.113e-04
1.110e+00 2.165e-01 -5.980e-04
1.120e+00 2.132e-01 -4.911e-04
1.130e+00 2.100e-01 -3.915e-04
1.140e+00 2.069e-01 -2.983e-04
1.150e+00 2.038e-01 -2.086e-04
1.160e+00 2.009e-01 -1.175e-04
1.170e+00 1.979e-01 -1.835e-05
1.180e+00 1.951e-01 9.658e-05
1.190e+00 1.923e-01 2.342e-04
1.200e+00 1.897e-01 3.990e-04
1.210e+00 1.870e-01 5.919e-04
1.220e+00 1.845e-01 8.100e-04
1.230e+00 1.820e-01 1.047e-03
1.240e+00 1.795e-01 1.293e-03
1.250e+00 1.771e-01 1.538e-03
1.260e+00 1.748e-01 1.770e-03
1.270e+00 1.725e-01 1.977e-03
1.280e+00 1.702e-01 2.145e-03
1.290e+00 1.679e-01 2.265e-03
1.300e+00 1.656e-01 2.328e-03
1.310e+00 1.633e-01 2.333e-03
1.320e+00 1.610e-01 2.279e-03
1.330e+00 1.587e-01 2.174e-03
1.340e+00 1.564e-01 2.025e-03
1.350e+00 1.540e-01 1.840e-03
1.360e+00 1.516e-01 1.627e-03
1.370e+00 1.492e-01 1.392e-03
1.380e+00 1.469e-01 1.139e-03
1.390e+00 1.445e-01 8.734e-04
1.400e+00 1.421e-01 5.995e-04
1.410e+00 1.398e-01 3.234e-04
1.420e+00 1.375e-01 5.179e-05
1.430e+00 1.352e-01 -2.076e-04
1.440e+00 1.330e-01 -4.479e-04
1.450e+00 1.308e-01 -6.631e-04
1.460e+00 1.287e-01 -8.485e-04
1.470e+00 1.265e-01 -1.001e-03
1.480e+00 1.245e-01 -1.118e-03
1.490e+00 1.224e-01 -1.198e-03
1.500e+00 1.204e-01 -1.240e-03
1.510e+00 1.185e-01 -1.246e-03
1.520e+00 1.165e-01 -1.217e-03
1.530e+00 1.146e-01 -1.156e-03
1.540e+00 1.128e-01 -1.067e-03
1.550e+00 1.109e-01 -9.548e-04
1.560e+00 1.091e-01 -8.258e-04
1.570e+00 1.073e-01 -6.859e-04
1.580e+00 1.056e-01 -5.404e-04
1.590e+00 1.038e-01 -3.932e-04
1.600e+00 1.021e-01 -2.457e-04
1.610e+00 1.004e-01 -9.631e-05
1.620e+00 9.875e-02 5.900e-05
1.630e+00 9.711e-02 2.263e-04
1.640e+00 9.550e-02 4.116e-04
1.650e+00 9.392e-02 6.202e-04
1.660e+00 9.237e-02 8.550e-04
1.670e+00 9.086e-02 1.117e-03
1.680e+00 8.937e-02 1.408e-03
1.690e+00 8.793e-02 1.724e-03
1.700e+00 8.652e-02 2.067e-03
1.710e+00 8.513e-02 2.434e-03
1.720e+00 8.378e-02 2.824e-03
1.730e+00 8.245e-02 3.235e-03
1.740e+00 8.113e-02 3.664e-03
1.750e+00 7.983e-02 4.108e-03
1.760e+00 7.852e-02 4.564e-03
1.770e+00 7.722e-02 5.029e-03
1.780e+00 7.590e-02 5.499e-03
1.790e+00 7.457e-02 5.977e-03
1.800e+00 7.324e-02 6.465e-03
1.810e+00 7.189e-02 6.967e-03
1.820e+00 7.053e-02 7.486e-03
1.830e+00 6.918e-02 8.016e-03
1.840e+00 6.782e-02 8.542e-03
1.850e+00 6.647e-02 9.043e-03
1.860e+00 6.511e-02 9.497e-03
1.870e+00 6.377e-02 9.884e-03
1.880e+00 6.243e-02 1.019e-02
1.890e+00 6.111e-02 1.042e-02
1.900e+00 5.980e-02 1.057e-02
1.910e+00 5.850e-02 1.066e-02
1.920e+00 5.721e-02 1.071e-02
1.930e+00 5.594e-02 1.074e-02
1.940e+00 5.468e-02 1.076e-02
1.950e+00 5.343e-02 1.079e-02
1.960e+00 5.219e-02 1.084e-02
1.970e+00 5.098e-02 1.091e-02
1.980e+00 4.978e-02 1.100e-02
1.990e+00 4.862e-02 1.113e-02
2.000e+00 4.748e-02 1.129e-02
2.010e+00 4.638e-02 1.149e-02
2.020e+00 4.531e-02 1.172e-02
2.030e+00 4.428e-02 1.198e-02
2.040e+00 4.328e-02 1.227e-02
2.050e+00 4.232e-02 1.257e-02
2.060e+00 4.140e-02 1.287e-02
2.070e+00 4.052e-02 1.316e-02
2.080e+00 3.968e-02 1.344e-02
2.090e+00 3.887e-02 1.370e-02
2.100e+00 3.810e-02 1.394e-02
2.110e+00 3.735e-02 1.416e-02
2.120e+00 3.663e-02 1.435e-02
2.130e+00 3.593e-02 1.454e-02
2.140e+00 3.524e-02 1.471e-02
2.150e+00 3.457e-02 1.488e-02
2.160e+00 3.391e-02 1.506e-02
2.170e+00 3.328e-02 1.526e-02
2.180e+00 3.266e-02 1.547e-02
2.190e+00 3.207e-02 1.571e-02
2.200e+00 3.152e-02 1.599e-02
2.210e+00 3.099e-02 1.629e-02
2.220e+00 3.050e-02 1.661e-02
2.230e+00 3.004e-02 1.696e-02
2.240e+00 2.960e-02 1.733e-02
2.250e+00 2.919e-02 1.770e-02
2.260e+00 2.880e-02 1.808e-02
2.270e+00 2.841e-02 1.845e-02
2.280e+00 2.803e-02 1.881e-02
2.290e+00 2.764e-02 1.916e-02
2.300e+00 2.724e-02 1.950e-02
2.310e+00 2.681e-02 1.982e-02
2.320e+00 2.636e-02 2.014e-02
2.330e+00 2.587e-02 2.044e-02
2.340e+00 2.534e-02 2.072e-02
2.350e+00 2.477e-02 2.098e-02
2.360e+00 2.415e-02 2.122e-02
2.370e+00 2.350e-02 2.143e-02
2.380e+00 2.282e-02 2.160e-02
2.390e+00 2.211e-02 2.173e-02
2.400e+00 2.138e-02 2.183e-02
2.410e+00 2.064e-02 2.188e-02
2.420e+00 1.990e-02 2.190e-02
2.430e+00 1.916e-02 2.189e-02
2.440e+00 1.843e-02 2.185e-02
2.450e+00 1.771e-02 2.178e-02
2.460e+00 1.701e-02 2.170e-02
2.470e+00 1.633e-02 2.160e-02
2.480e+00 1.567e-02 2.149e-02
2.490e+00 1.502e-02 2.138e-02
2.500e+00 1.438e-02 2.128e-02
2.510e+00 1.377e-02 2.119e-02
2.520e+00 1.317e-02 2.111e-02
2.530e+00 1.258e-02 2.104e-02
2.540e+00 1.202e-02 2.100e-02
2.550e+00 1.149e-02 2.097e-02
2.560e+00 1.100e-02 2.097e-02
2.570e+00 1.057e-02 2.099e-02
2.580e+00 1.020e-02 2.106e-02
2.590e+00 9.916e-03 2.116e-02
2.600e+00 9.707e-03 2.130e-02
2.610e+00 9.574e-03 2.148e-02
2.620e+00 9.507e-03 2.169e-02
2.630e+00 9.496e-03 2.195e-02
2.640e+00 9.528e-03 2.223e-02
2.650e+00 9.591e-03 2.255e-02
2.660e+00 9.675e-03 2.290e-02
2.670e+00 9.769e-03 2.327e-02
2.680e+00 9.864e-03 2.366e-02
2.690e+00 9.949e-03 2.406e-02
2.700e+00 1.001e-02 2.447e-02
2.710e+00 1.005e-02 2.488e-02
2.720e+00 1.003e-02 2.528e-02
2.730e+00 9.965e-03 2.568e-02
2.740e+00 9.827e-03 2.605e-02
2.750e+00 9.612e-03 2.640e-02
2.760e+00 9.313e-03 2.672e-02
2.770e+00 8.927e-03 2.700e-02
2.780e+00 8.451e-03 2.723e-02
2.790e+00 7.885e-03 2.741e-02
2.800e+00 7.234e-03 2.750e-02
2.810e+00 6.511e-03 2.752e-02
2.820e+00 5.734e-03 2.744e-02
2.830e+00 4.933e-03 2.727e-02
2.840e+00 4.141e-03 2.699e-02
2.850e+00 3.394e-03 2.663e-02
2.860e+00 2.717e-03 2.619e-02
2.870e+00 2.124e-03 2.571e-02
2.880e+00 1.617e-03 2.520e-02
2.890e+00 1.184e-03 2.468e-02
2.900e+00 8.088e-04 2.418e-02
2.910e+00 4.740e-04 2.370e-02
2.920e+00 1.633e-04 2.326e-02
2.930e+00 -1.362e-04 2.286e-02
2.940e+00 -4.337e-04 2.249e-02
2.950e+00 -7.345e-04 2.217e-02
2.960e+00 -1.041e-03 2.190e-02
2.970e+00 -1.355e-03 2.166e-02
2.980e+00 -1.674e-03 2.147e-02
2.990e+00 -1.996e-03 2.133e-02
3.000e+00 -2.318e-03 2.122e-02
3.010e+00 -2.635e-03 2.116e-02
3.020e+00 -2.944e-03 2.114e-02
3.030e+00 -3.237e-03 2.115e-02
3.040e+00 -3.510e-03 2.118e-02
3.050e+00 -3.758e-03 2.124e-02
3.060e+00 -3.976e-03 2.131e-02
3.070e+00 -4.160e-03 2.138e-02
3.080e+00 -4.307e-03 2.146e-02
3.090e+00 -4.413e-03 2.154e-02
3.100e+00 -4.479e-03 2.162e-02
3.110e+00 -4.504e-03 2.169e-02
3.120e+00 -4.491e-03 2.175e-02
3.130e+00 -4.442e-03 2.181e-02
3.140e+00 -4.360e-03 2.187e-02
3.150e+00 -4.252e-03 2.192e-02
3.160e+00 -4.121e-03 2.196e-02
3.170e+00 -3.972e-03 2.199e-02
3.180e+00 -3.809e-03 2.201e-02
3.190e+00 -3.637e-03 2.202e-02
3.200e+00 -3.459e-03 2.201e-02
3.210e+00 -3.279e-03 2.199e-02
3.220e+00 -3.102e-03 2.196e-02
3.230e+00 -2.930e-03 2.191e-02
3.240e+00 -2.769e-03 2.185e-02
3.250e+00 -2.622e-03 2.177e-02
3.260e+00 -2.491e-03 2.167e-02
3.270e+00 -2.380e-03 2.156e-02
3.280e+00 -2.287e-03 2.141e-02
3.290e+00 -2.210e-03 2.125e-02
3.300e+00 -2.142e-03 2.106e-02
3.310e+00 -2.076e-03 2.086e-02
3.320e+00 -2.001e-03 2.064e-02
3.330e+00 -1.909e-03 2.041e-02
3.340e+00 -1.794e-03 2.018e-02
3.350e+00 -1.653e-03 1.995e-02
3.360e+00 -1.488e-03 1.973e-02
3.370e+00 -1.301e-03 1.951e-02
3.380e+00 -1.097e-03 1.929e-02
3.390e+00 -8.821e-04 1.908e-02
3.400e+00 -6.603e-04 1.888e-02
3.410e+00 -4.379e-04 1.869e-02
3.420e+00 -2.207e-04 1.850e-02
3.430e+00 -1.391e-05 1.832e-02
3.440e+00 1.790e-04 1.815e-02
3.450e+00 3.566e-04 1.798e-02
3.460e+00 5.188e-04 1.781e-02
3.470e+00 6.660e-04 1.765e-02
3.480e+00 7.980e-04 1.749e-02
3.490e+00 9.140e-04 1.733e-02
3.500e+00 1.013e-03 1.718e-02
3.510e+00 1.097e-03 1.702e-02
3.520e+00 1.165e-03 1.686e-02
3.530e+00 1.222e-03 1.668e-02
3.540e+00 1.270e-03 1.648e-02
3.550e+00 1.313e-03 1.626e-02
3.560e+00 1.354e-03 1.600e-02
3.570e+00 1.395e-03 1.571e-02
3.580e+00 1.437e-03 1.539e-02
3.590e+00 1.481e-03 1.504e-02
3.600e+00 1.526e-03 1.466e-02
3.610e+00 1.574e-03 1.425e-02
3.620e+00 1.624e-03 1.383e-02
3.630e+00 1.676e-03 1.340e-02
3.640e+00 1.731e-03 1.296e-02
3.650e+00 1.788e-03 1.252e-02
3.660e+00 1.850e-03 1.209e-02
3.670e+00 1.917e-03 1.166e-02
3.680e+00 1.991e-03 1.125e-02
3.690e+00 2.074e-03 1.086e-02
3.700e+00 2.167e-03 1.049e-02
3.710e+00 2.273e-03 1.014e-02
3.720e+00 2.389e-03 9.812e-03
3.730e+00 2.516e-03 9.507e-03
3.740e+00 2.649e-03 9.223e-03
3.750e+00 2.787e-03 8.959e-03
3.760e+00 2.923e-03 8.710e-03
3.770e+00 3.055e-03 8.470e-03
3.780e+00 3.176e-03 8.232e-03
3.790e+00 3.283e-03 7.985e-03
3.800e+00 3.373e-03 7.724e-03
3.810e+00 3.451e-03 7.444e-03
3.820e+00 3.521e-03 7.147e-03
3.830e+00 3.592e-03 6.839e-03
3.840e+00 3.671e-03 6.527e-03
3.850e+00 3.763e-03 6.216e-03
3.860e+00 3.872e-03 5.911e-03
3.870e+00 3.999e-03 5.618e-03
3.880e+00 4.143e-03 5.339e-03
3.890e+00 4.302e-03 5.080e-03
3.900e+00 4.475e-03 4.844e-03
3.910e+00 4.657e-03 4.635e-03
3.920e+00 4.846e-03 4.458e-03
3.930e+00 5.035e-03 4.315e-03
3.940e+00 5.220e-03 4.208e-03
3.950e+00 5.398e-03 4.137e-03
3.960e+00 5.565e-03 4.101e-03
3.970e+00 5.718e-03 4.100e-03
3.980e+00 5.854e-03 4.133e-03
3.990e+00 5.969e-03 4.203e-03
4.000e+00 6.062e-03 4.312e-03
4.010e+00 6.127e-03 4.465e-03
4.020e+00 6.161e-03 4.666e-03
4.030e+00 6.161e-03 4.918e-03
4.040e+00 6.125e-03 5.222e-03
4.050e+00 6.055e-03 5.575e-03
4.060e+00 5.953e-03 5.971e-03
4.070e+00 5.825e-03 6.401e-03
4.080e+00 5.679e-03 6.858e-03
4.090e+00 5.525e-03 7.331e-03
4.100e+00 5.373e-03 7.812e-03
4.110e+00 5.235e-03 8.290e-03
4.120e+00 5.117e-03 8.757e-03
4.130e+00 5.021e-03 9.206e-03
4.140e+00 4.945e-03 9.627e-03
4.150e+00 4.880e-03 1.002e-02
4.160e+00 4.820e-03 1.037e-02
4.170e+00 4.755e-03 1.069e-02
4.180e+00 4.682e-03 1.097e-02
4.190e+00 4.598e-03 1.122e-02
4.200e+00 4.503e-03 1.143e-02
4.210e+00 4.401e-03 1.161e-02
4.220e+00 4.296e-03 1.178e-02
4.230e+00 4.193e-03 1.193e-02
4.240e+00 4.100e-03 1.208e-02
4.250e+00 4.021e-03 1.222e-02
4.260e+00 3.963e-03 1.238e-02
4.270e+00 3.932e-03 1.254e-02
4.280e+00 3.935e-03 1.272e-02
4.290e+00 3.982e-03 1.289e-02
4.300e+00 4.082e-03 1.307e-02
4.310e+00 4.244e-03 1.324e-02
4.320e+00 4.475e-03 1.337e-02
4.330e+00 4.776e-03 1.348e-02
4.340e+00 5.143e-03 1.354e-02
4.350e+00 5.564e-03 1.359e-02
4.360e+00 6.023e-03 1.362e-02
4.370e+00 6.502e-03 1.366e-02
4.380e+00 6.984e-03 1.371e-02
4.390e+00 7.458e-03 1.379e-02
4.400e+00 7.915e-03 1.390e-02
4.410e+00 8.349e-03 1.404e-02
4.420e+00 8.760e-03 1.419e-02
4.430e+00 9.145e-03 1.437e-02
4.440e+00 9.506e-03 1.456e-02
4.450e+00 9.844e-03 1.476e-02
4.460e+00 1.016e-02 1.497e-02
4.470e+00 1.045e-02 1.518e-02
4.480e+00 1.073e-02 1.540e-02
4.490e+00 1.099e-02 1.560e-02
4.500e+00 1.123e-02 1.579e-02
4.510e+00 1.145e-02 1.596e-02
4.520e+00 1.165e-02 1.611e-02
4.530e+00 1.184e-02 1.622e-02
4.540e+00 1.202e-02 1.629e-02
4.550e+00 1.218e-02 1.633e-02
4.560e+00 1.233e-02 1.633e-02
4.570e+00 1.247e-02 1.630e-02
4.580e+00 1.261e-02 1.624e-02
4.590e+00 1.274e-02 1.615e-02
4.600e+00 1.287e-02 1.603e-02
4.610e+00 1.300e-02 1.589e-02
4.620e+00 1.313e-02 1.572e-02
4.630e+00 1.327e-02 1.554e-02
4.640e+00 1.342e-02 1.535e-02
4.650e+00 1.358e-02 1.514e-02
4.660e+00 1.373e-02 1.492e-02
4.670e+00 1.390e-02 1.470e-02
4.680e+00 1.407e-02 1.447e-02
4.690e+00 1.423e-02 1.424e-02
4.700e+00 1.441e-02 1.402e-02
4.710e+00 1.458e-02 1.381e-02
4.720e+00 1.475e-02 1.361e-02
4.730e+00 1.492e-02 1.341e-02
4.740e+00 1.509e-02 1.323e-02
4.750e+00 1.525e-02 1.305e-02
4.760e+00 1.540e-02 1.287e-02
4.770e+00 1.554e-02 1.270e-02
4.780e+00 1.565e-02 1.253e-02
4.790e+00 1.574e-02 1.235e-02
4.800e+00 1.579e-02 1.215e-02
4.810e+00 1.578e-02 1.194e-02
4.820e+00 1.570e-02 1.170e-02
4.830e+00 1.554e-02 1.144e-02
4.840e+00 1.526e-02 1.116e-02
4.850e+00 1.488e-02 1.086e-02
4.860e+00 1.439e-02 1.055e-02
4.870e+00 1.383e-02 1.023e-02
4.880e+00 1.322e-02 9.908e-03
4.890e+00 1.258e-02 9.591e-03
4.900e+00 1.195e-02 9.278e-03
4.910e+00 1.133e-02 8.971e-03
4.920e+00 1.073e-02 8.672e-03
4.930e+00 1.015e-02 8.380e-03
4.940e+00 9.602e-03 8.094e-03
4.950e+00 9.082e-03 7.814e-03
4.960e+00 8.593e-03 7.540e-03
4.970e+00 8.132e-03 7.272e-03
4.980e+00 7.698e-03 7.010e-03
4.990e+00 7.288e-03 6.757e-03
5.000e+00 6.900e-03 6.513e-03
5.010e+00 6.528e-03 6.280e-03
5.020e+00 6.170e-03 6.060e-03
5.030e+00 5.823e-03 5.854e-03
5.040e+00 5.486e-03 5.663e-03
5.050e+00 5.158e-03 5.490e-03
5.060e+00 4.839e-03 5.334e-03
5.070e+00 4.530e-03 5.197e-03
5.080e+00 4.230e-03 5.079e-03
5.090e+00 3.939e-03 4.978e-03
5.100e+00 3.655e-03 4.892e-03
5.110e+00 3.378e-03 4.820e-03
5.120e+00 3.108e-03 4.759e-03
5.130e+00 2.843e-03 4.707e-03
5.140e+00 2.586e-03 4.660e-03
5.150e+00 2.336e-03 4.616e-03
5.160e+00 2.094e-03 4.574e-03
5.170e+00 1.862e-03 4.532e-03
5.180e+00 1.638e-03 4.491e-03
5.190e+00 1.423e-03 4.449e-03
5.200e+00 1.215e-03 4.406e-03
5.210e+00 1.016e-03 4.361e-03
5.220e+00 8.261e-04 4.312e-03
5.230e+00 6.451e-04 4.257e-03
5.240e+00 4.748e-04 4.193e-03
5.250e+00 3.163e-04 4.116e-03
5.260e+00 1.710e-04 4.026e-03
5.270e+00 4.004e-05 3.918e-03
5.280e+00 -7.568e-05 3.792e-03
5.290e+00 -1.753e-04 3.648e-03
5.300e+00 -2.582e-04 3.484e-03
5.310e+00 -3.237e-04 3.301e-03
5.320e+00 -3.713e-04 3.104e-03
5.330e+00 -4.009e-04 2.896e-03
5.340e+00 -4.132e-04 2.683e-03
5.350e+00 -4.096e-04 2.475e-03
5.360e+00 -3.912e-04 2.281e-03
5.370e+00 -3.596e-04 2.109e-03
5.380e+00 -3.162e-04 1.963e-03
5.390e+00 -2.630e-04 1.845e-03
5.400e+00 -2.025e-04 1.751e-03
5.410e+00 -1.375e-04 1.679e-03
5.420e+00 -6.987e-05 1.624e-03
5.430e+00 -4.845e-07 1.583e-03
5.440e+00 7.062e-05 1.553e-03
5.450e+00 1.436e-04 1.530e-03
5.460e+00 2.182e-04 1.512e-03
5.470e+00 2.944e-04 1.499e-03
5.480e+00 3.721e-04 1.489e-03
5.490e+00 4.519e-04 1.482e-03
5.500e+00 5.344e-04 1.483e-03
5.510e+00 6.204e-04 1.493e-03
5.520e+00 7.101e-04 1.519e-03
5.530e+00 8.028e-04 1.563e-03
5.540e+00 8.962e-04 1.628e-03
5.550e+00 9.866e-04 1.713e-03
5.560e+00 1.069e-03 1.816e-03
5.570e+00 1.138e-03 1.932e-03
5.580e+00 1.190e-03 2.057e-03
5.590e+00 1.220e-03 2.186e-03
5.600e+00 1.226e-03 2.317e-03
5.610e+00 1.206e-03 2.450e-03
5.620e+00 1.159e-03 2.583e-03
5.630e+00 1.084e-03 2.717e-03
5.640e+00 9.820e-04 2.854e-03
5.650e+00 8.519e-04 2.994e-03
5.660e+00 6.936e-04 3.139e-03
5.670e+00 5.067e-04 3.291e-03
5.680e+00 2.901e-04 3.452e-03
5.690e+00 4.232e-05 3.624e-03
5.700e+00 -2.385e-04 3.806e-03
5.710e+00 -5.542e-04 3.998e-03
5.720e+00 -9.062e-04 4.199e-03
5.730e+00 -1.294e-03 4.406e-03
5.740e+00 -1.716e-03 4.618e-03
5.750e+00 -2.166e-03 4.831e-03
5.760e+00 -2.636e-03 5.041e-03
5.770e+00 -3.112e-03 5.246e-03
5.780e+00 -3.582e-03 5.441e-03
5.790e+00 -4.029e-03 5.622e-03
5.800e+00 -4.439e-03 5.785e-03
5.810e+00 -4.799e-03 5.926e-03
5.820e+00 -5.100e-03 6.042e-03
5.830e+00 -5.340e-03 6.130e-03
5.840e+00 -5.522e-03 6.191e-03
5.850e+00 -5.652e-03 6.227e-03
5.860e+00 -5.744e-03 6.243e-03
5.870e+00 -5.811e-03 6.243e-03
5.880e+00 -5.869e-03 6.231e-03
5.890e+00 -5.931e-03 6.210e-03
5.900e+00 -6.009e-03 6.178e-03
5.910e+00 -6.112e-03 6.132e-03
5.920e+00 -6.244e-03 6.065e-03
5.930e+00 -6.404e-03 5.968e-03
5.940e+00 -6.590e-03 5.834e-03
5.950e+00 -6.793e-03 5.660e-03
5.960e+00 -7.004e-03 5.445e-03
5.970e+00 -7.213e-03 5.198e-03
5.980e+00 -7.411e-03 4.932e-03
5.990e+00 -7.592e-03 4.662e-03
6.000e+00 -7.754e-03 4.401e-03
6.010e+00 -7.898e-03 4.160e-03
6.020e+00 -8.025e-03 3.943e-03
6.030e+00 -8.136e-03 3.751e-03
6.040e+00 -8.234e-03 3.582e-03
6.050e+00 -8.318e-03 3.431e-03
6.060e+00 -8.387e-03 3.292e-03
6.070e+00 -8.438e-03 3.161e-03
6.080e+00 -8.467e-03 3.032e-03
6.090e+00 -8.470e-03 2.902e-03
6.100e+00 -8.443e-03 2.769e-03
6.110e+00 -8.384e-03 2.630e-03
6.120e+00 -8.291e-03 2.488e-03
6.130e+00 -8.165e-03 2.343e-03
6.140e+00 -8.008e-03 2.202e-03
6.150e+00 -7.824e-03 2.069e-03
6.160e+00 -7.616e-03 1.950e-03
6.170e+00 -7.387e-03 1.848e-03
6.180e+00 -7.141e-03 1.765e-03
6.190e+00 -6.883e-03 1.701e-03
6.200e+00 -6.617e-03 1.653e-03
6.210e+00 -6.347e-03 1.617e-03
6.220e+00 -6.077e-03 1.590e-03
6.230e+00 -5.810e-03 1.569e-03
6.240e+00 -5.549e-03 1.551e-03
6.250e+00 -5.295e-03 1.536e-03
6.260e+00 -5.048e-03 1.521e-03
6.270e+00 -4.809e-03 1.506e-03
6.280e+00 -4.576e-03 1.490e-03
6.290e+00 -4.347e-03 1.474e-03
6.300e+00 -4.120e-03 1.456e-03
6.310e+00 -3.893e-03 1.436e-03
6.320e+00 -3.663e-03 1.415e-03
6.330e+00 -3.430e-03 1.391e-03
6.340e+00 -3.193e-03 1.365e-03
6.350e+00 -2.951e-03 1.336e-03
6.360e+00 -2.703e-03 1.302e-03
6.370e+00 -2.448e-03 1.263e-03
6.380e+00 -2.185e-03 1.217e-03
6.390e+00 -1.912e-03 1.165e-03
6.400e+00 -1.628e-03 1.104e-03
6.410e+00 -1.332e-03 1.035e-03
6.420e+00 -1.023e-03 9.570e-04
6.430e+00 -7.005e-04 8.695e-04
6.440e+00 -3.649e-04 7.730e-04
6.450e+00 -1.916e-05 6.685e-04
6.460e+00 3.310e-04 5.580e-04
6.470e+00 6.768e-04 4.448e-04
6.480e+00 1.008e-03 3.335e-04
6.490e+00 1.314e-03 2.298e-04
6.500e+00 1.588e-03 1.399e-04
6.510e+00 1.828e-03 6.910e-05
6.520e+00 2.036e-03 2.110e-05
6.530e+00 2.218e-03 -2.661e-06
6.540e+00 2.382e-03 -2.596e-06
6.550e+00 2.534e-03 1.950e-05
6.560e+00 2.680e-03 6.109e-05
6.570e+00 2.823e-03 1.191e-04
