# Time (ps)      real(F_0)      im(F_0)
0.000e+00 1.000e+00 0.000e+00
1.000e-02 9.968e-01 0.000e+00
2.000e-02 9.927e-01 0.000e+00
3.000e-02 9.877e-01 0.000e+00
4.000e-02 9.821e-01 0.000e+00
5.000e-02 9.758e-01 0.000e+00
6.000e-02 9.691e-01 0.000e+00
7.000e-02 9.620e-01 0.000e+00
8.000e-02 9.545e-01 0.000e+00
9.000e-02 9.467e-01 0.000e+00
1.000e-01 9.386e-01 0.000e+00
1.100e-01 9.301e-01 0.000e+00
1.200e-01 9.213e-01 0.000e+00
1.300e-01 9.122e-01 0.000e+00
1.400e-01 9.028e-01 0.000e+00
1.500e-01 8.932e-01 0.000e+00
1.600e-01 8.834e-01 0.000e+00
1.700e-01 8.734e-01 0.000e+00
1.800e-01 8.631e-01 0.000e+00
1.900e-01 8.526e-01 0.000e+00
2.000e-01 8.417e-01 0.000e+00
2.100e-01 8.306e-01 0.000e+00
2.200e-01 8.193e-01 0.000e+00
2.300e-01 8.077e-01 0.000e+00
2.400e-01 7.960e-01 0.000e+00
2.500e-01 7.840e-01 0.000e+00
2.600e-01 7.719e-01 0.000e+00
2.700e-01 7.597e-01 0.000e+00
2.800e-01 7.474e-01 0.000e+00
2.900e-01 7.351e-01 0.000e+00
3.000e-01 7.228e-01 0.000e+00
3.100e-01 7.105e-01 0.000e+00
3.200e-01 6.984e-01 0.000e+00
3.300e-01 6.864e-01 0.000e+00
3.400e-01 6.746e-01 0.000e+00
3.500e-01 6.630e-01 0.000e+00
3.600e-01 6.517e-01 0.000e+00
3.700e-01 6.406e-01 0.000e+00
3.800e-01 6.298e-01 0.000e+00
3.900e-01 6.193e-01 0.000e+00
4.000e-01 6.090e-01 0.000e+00
4.100e-01 5.989e-01 0.000e+00
4.200e-01 5.891e-01 0.000e+00
4.300e-01 5.795e-01 0.000e+00
4.400e-01 5.701e-01 0.000e+00
4.500e-01 5.608e-01 0.000e+00
4.600e-01 5.516e-01 0.000e+00
4.700e-01 5.424e-01 0.000e+00
4.800e-01 5.332e-01 0.000e+00
4.900e-01 5.241e-01 0.000e+00
5.000e-01 5.150e-01 0.000e+00
5.100e-01 5.060e-01 0.000e+00
5.200e-01 4.971e-01 0.000e+00
5.300e-01 4.884e-01 0.000e+00
5.400e-01 4.799e-01 0.000e+00
5.500e-01 4.715e-01 0.000e+00
5.600e-01 4.634e-01 0.000e+00
5.700e-01 4.554e-01 0.000e+00
5.800e-01 4.475e-01 0.000e+00
5.900e-01 4.398e-01 0.000e+00
6.000e-01 4.322e-01 0.000e+00
6.100e-01 4.247e-01 0.000e+00
6.200e-01 4.174e-01 0.000e+00
6.300e-01 4.101e-01 0.000e+00
6.400e-01 4.029e-01 0.000e+00
6.500e-01 3.959e-01 0.000e+00
6.600e-01 3.889e-01 0.000e+00
6.700e-01 3.821e-01 0.000e+00
6.800e-01 3.754e-01 0.000e+00
6.900e-01 3.689e-01 0.000e+00
7.000e-01 3.625e-01 0.000e+00
7.100e-01 3.562e-01 0.000e+00
7.200e-01 3.501e-01 0.000e+00
7.300e-01 3.440e-01 0.000e+00
7.400e-01 3.381e-01 0.000e+00
7.500e-01 3.322e-01 0.000e+00
7.600e-01 3.264e-01 0.000e+00
7.700e-01 3.207e-01 0.000e+00
7.800e-01 3.151e-01 0.000e+00
7.900e-01 3.095e-01 0.000e+00
8.000e-01 3.040e-01 0.000e+00
8.100e-01 2.985e-01 0.000e+00
8.200e-01 2.932e-01 0.000e+00
8.300e-01 2.878e-01 0.000e+00
8.400e-01 2.826e-01 0.000e+00
8.500e-01 2.774e-01 0.000e+00
8.600e-01 2.724e-01 0.000e+00
8.700e-01 2.674e-01 0.000e+00
8.800e-01 2.625e-01 0.000e+00
8.900e-01 2.576e-01 0.000e+00
9.000e-01 2.529e-01 0.000e+00
9.100e-01 2.483e-01 0.000e+00
9.200e-01 2.438e-01 0.000e+00
9.300e-01 2.394e-01 0.000e+00
9.400e-01 2.351e-01 0.000e+00
9.500e-01 2.310e-01 0.000e+00
9.600e-01 2.269e-01 0.000e+00
9.700e-01 2.230e-01 0.000e+00
9.800e-01 2.192e-01 0.000e+00
9.900e-01 2.154e-01 0.000e+00
1.000e+00 2.118e-01 0.000e+00
1.010e+00 2.083e-01 0.000e+00
1.020e+00 2.049e-01 0.000e+00
1.030e+00 2.015e-01 0.000e+00
1.040e+00 1.982e-01 0.000e+00
1.050e+00 1.948e-01 0.000e+00
1.060e+00 1.915e-01 0.000e+00
1.070e+00 1.881e-01 0.000e+00
1.080e+00 1.847e-01 0.000e+00
1.090e+00 1.813e-01 0.000e+00
1.100e+00 1.779e-01 0.000e+00
1.110e+00 1.745e-01 0.000e+00
1.120e+00 1.711e-01 0.000e+00
1.130e+00 1.677e-01 0.000e+00
1.140e+00 1.643e-01 0.000e+00
1.150e+00 1.610e-01 0.000e+00
1.160e+00 1.577e-01 0.000e+00
1.170e+00 1.544e-01 0.000e+00
1.180e+00 1.512e-01 0.000e+00
1.190e+00 1.481e-01 0.000e+00
1.200e+00 1.451e-01 0.000e+00
1.210e+00 1.421e-01 0.000e+00
1.220e+00 1.392e-01 0.000e+00
1.230e+00 1.364e-01 0.000e+00
1.240e+00 1.336e-01 0.000e+00
1.250e+00 1.310e-01 0.000e+00
1.260e+00 1.284e-01 0.000e+00
1.270e+00 1.259e-01 0.000e+00
1.280e+00 1.235e-01 0.000e+00
1.290e+00 1.211e-01 0.000e+00
1.300e+00 1.188e-01 0.000e+00
1.310e+00 1.167e-01 0.000e+00
1.320e+00 1.145e-01 0.000e+00
1.330e+00 1.125e-01 0.000e+00
1.340e+00 1.105e-01 0.000e+00
1.350e+00 1.085e-01 0.000e+00
1.360e+00 1.066e-01 0.000e+00
1.370e+00 1.047e-01 0.000e+00
1.380e+00 1.028e-01 0.000e+00
1.390e+00 1.009e-01 0.000e+00
1.400e+00 9.904e-02 0.000e+00
1.410e+00 9.721e-02 0.000e+00
1.420e+00 9.538e-02 0.000e+00
1.430e+00 9.357e-02 0.000e+00
1.440e+00 9.178e-02 0.000e+00
1.450e+00 9.000e-02 0.000e+00
1.460e+00 8.822e-02 0.000e+00
1.470e+00 8.646e-02 0.000e+00
1.480e+00 8.471e-02 0.000e+00
1.490e+00 8.298e-02 0.000e+00
1.500e+00 8.127e-02 0.000e+00
1.510e+00 7.957e-02 0.000e+00
1.520e+00 7.790e-02 0.000e+00
1.530e+00 7.626e-02 0.000e+00
1.540e+00 7.465e-02 0.000e+00
1.550e+00 7.307e-02 0.000e+00
1.560e+00 7.152e-02 0.000e+00
1.570e+00 7.001e-02 0.000e+00
1.580e+00 6.853e-02 0.000e+00
1.590e+00 6.710e-02 0.000e+00
1.600e+00 6.569e-02 0.000e+00
1.610e+00 6.433e-02 0.000e+00
1.620e+00 6.300e-02 0.000e+00
1.630e+00 6.170e-02 0.000e+00
1.640e+00 6.044e-02 0.000e+00
1.650e+00 5.920e-02 0.000e+00
1.660e+00 5.799e-02 0.000e+00
1.670e+00 5.680e-02 0.000e+00
1.680e+00 5.563e-02 0.000e+00
1.690e+00 5.447e-02 0.000e+00
1.700e+00 5.334e-02 0.000e+00
1.710e+00 5.224e-02 0.000e+00
1.720e+00 5.116e-02 0.000e+00
1.730e+00 5.012e-02 0.000e+00
1.740e+00 4.914e-02 0.000e+00
1.750e+00 4.823e-02 0.000e+00
1.760e+00 4.741e-02 0.000e+00
1.770e+00 4.669e-02 0.000e+00
1.780e+00 4.609e-02 0.000e+00
1.790e+00 4.562e-02 0.000e+00
1.800e+00 4.528e-02 0.000e+00
1.810e+00 4.506e-02 0.000e+00
1.820e+00 4.496e-02 0.000e+00
1.830e+00 4.496e-02 0.000e+00
1.840e+00 4.504e-02 0.000e+00
1.850e+00 4.517e-02 0.000e+00
1.860e+00 4.532e-02 0.000e+00
1.870e+00 4.548e-02 0.000e+00
1.880e+00 4.561e-02 0.000e+00
1.890e+00 4.572e-02 0.000e+00
1.900e+00 4.583e-02 0.000e+00
1.910e+00 4.593e-02 0.000e+00
1.920e+00 4.605e-02 0.000e+00
1.930e+00 4.619e-02 0.000e+00
1.940e+00 4.635e-02 0.000e+00
1.950e+00 4.649e-02 0.000e+00
1.960e+00 4.659e-02 0.000e+00
1.970e+00 4.662e-02 0.000e+00
1.980e+00 4.656e-02 0.000e+00
1.990e+00 4.639e-02 0.000e+00
2.000e+00 4.611e-02 0.000e+00
2.010e+00 4.573e-02 0.000e+00
2.020e+00 4.528e-02 0.000e+00
2.030e+00 4.476e-02 0.000e+00
2.040e+00 4.421e-02 0.000e+00
2.050e+00 4.365e-02 0.000e+00
2.060e+00 4.310e-02 0.000e+00
2.070e+00 4.257e-02 0.000e+00
2.080e+00 4.208e-02 0.000e+00
2.090e+00 4.165e-02 0.000e+00
2.100e+00 4.126e-02 0.000e+00
2.110e+00 4.091e-02 0.000e+00
2.120e+00 4.059e-02 0.000e+00
2.130e+00 4.028e-02 0.000e+00
2.140e+00 3.997e-02 0.000e+00
2.150e+00 3.966e-02 0.000e+00
2.160e+00 3.933e-02 0.000e+00
2.170e+00 3.899e-02 0.000e+00
2.180e+00 3.862e-02 0.000e+00
2.190e+00 3.822e-02 0.000e+00
2.200e+00 3.779e-02 0.000e+00
2.210e+00 3.733e-02 0.000e+00
2.220e+00 3.683e-02 0.000e+00
2.230e+00 3.631e-02 0.000e+00
2.240e+00 3.574e-02 0.000e+00
2.250e+00 3.516e-02 0.000e+00
2.260e+00 3.454e-02 0.000e+00
2.270e+00 3.390e-02 0.000e+00
2.280e+00 3.325e-02 0.000e+00
2.290e+00 3.257e-02 0.000e+00
2.300e+00 3.189e-02 0.000e+00
2.310e+00 3.120e-02 0.000e+00
2.320e+00 3.051e-02 0.000e+00
2.330e+00 2.980e-02 0.000e+00
2.340e+00 2.910e-02 0.000e+00
2.350e+00 2.838e-02 0.000e+00
2.360e+00 2.765e-02 0.000e+00
2.370e+00 2.691e-02 0.000e+00
2.380e+00 2.617e-02 0.000e+00
2.390e+00 2.542e-02 0.000e+00
2.400e+00 2.468e-02 0.000e+00
2.410e+00 2.395e-02 0.000e+00
2.420e+00 2.324e-02 0.000e+00
2.430e+00 2.256e-02 0.000e+00
2.440e+00 2.193e-02 0.000e+00
2.450e+00 2.135e-02 0.000e+00
2.460e+00 2.082e-02 0.000e+00
2.470e+00 2.034e-02 0.000e+00
2.480e+00 1.993e-02 0.000e+00
2.490e+00 1.957e-02 0.000e+00
2.500e+00 1.926e-02 0.000e+00
2.510e+00 1.899e-02 0.000e+00
2.520e+00 1.874e-02 0.000e+00
2.530e+00 1.849e-02 0.000e+00
2.540e+00 1.824e-02 0.000e+00
2.550e+00 1.797e-02 0.000e+00
2.560e+00 1.766e-02 0.000e+00
2.570e+00 1.730e-02 0.000e+00
2.580e+00 1.687e-02 0.000e+00
2.590e+00 1.637e-02 0.000e+00
2.600e+00 1.579e-02 0.000e+00
2.610e+00 1.514e-02 0.000e+00
2.620e+00 1.441e-02 0.000e+00
2.630e+00 1.363e-02 0.000e+00
2.640e+00 1.279e-02 0.000e+00
2.650e+00 1.191e-02 0.000e+00
2.660e+00 1.099e-02 0.000e+00
2.670e+00 1.004e-02 0.000e+00
2.680e+00 9.087e-03 0.000e+00
2.690e+00 8.129e-03 0.000e+00
2.700e+00 7.181e-03 0.000e+00
2.710e+00 6.251e-03 0.000e+00
2.720e+00 5.344e-03 0.000e+00
2.730e+00 4.464e-03 0.000e+00
2.740e+00 3.613e-03 0.000e+00
2.750e+00 2.792e-03 0.000e+00
2.760e+00 2.003e-03 0.000e+00
2.770e+00 1.244e-03 0.000e+00
2.780e+00 5.169e-04 0.000e+00
2.790e+00 -1.759e-04 0.000e+00
2.800e+00 -8.324e-04 0.000e+00
2.810e+00 -1.451e-03 0.000e+00
2.820e+00 -2.029e-03 0.000e+00
2.830e+00 -2.567e-03 0.000e+00
2.840e+00 -3.062e-03 0.000e+00
2.850e+00 -3.515e-03 0.000e+00
2.860e+00 -3.925e-03 0.000e+00
2.870e+00 -4.295e-03 0.000e+00
2.880e+00 -4.626e-03 0.000e+00
2.890e+00 -4.922e-03 0.000e+00
2.900e+00 -5.188e-03 0.000e+00
2.910e+00 -5.428e-03 0.000e+00
2.920e+00 -5.646e-03 0.000e+00
2.930e+00 -5.846e-03 0.000e+00
2.940e+00 -6.029e-03 0.000e+00
2.950e+00 -6.199e-03 0.000e+00
2.960e+00 -6.358e-03 0.000e+00
2.970e+00 -6.507e-03 0.000e+00
2.980e+00 -6.648e-03 0.000e+00
2.990e+00 -6.783e-03 0.000e+00
3.000e+00 -6.915e-03 0.000e+00
3.010e+00 -7.045e-03 0.000e+00
3.020e+00 -7.177e-03 0.000e+00
3.030e+00 -7.313e-03 0.000e+00
3.040e+00 -7.455e-03 0.000e+00
3.050e+00 -7.606e-03 0.000e+00
3.060e+00 -7.767e-03 0.000e+00
3.070e+00 -7.940e-03 0.000e+00
3.080e+00 -8.123e-03 0.000e+00
3.090e+00 -8.317e-03 0.000e+00
3.100e+00 -8.521e-03 0.000e+00
3.110e+00 -8.731e-03 0.000e+00
3.120e+00 -8.946e-03 0.000e+00
3.130e+00 -9.161e-03 0.000e+00
3.140e+00 -9.374e-03 0.000e+00
3.150e+00 -9.583e-03 0.000e+00
3.160e+00 -9.785e-03 0.000e+00
3.170e+00 -9.983e-03 0.000e+00
3.180e+00 -1.018e-02 0.000e+00
3.190e+00 -1.036e-02 0.000e+00
3.200e+00 -1.055e-02 0.000e+00
3.210e+00 -1.072e-02 0.000e+00
3.220e+00 -1.088e-02 0.000e+00
3.230e+00 -1.101e-02 0.000e+00
3.240e+00 -1.110e-02 0.000e+00
3.250e+00 -1.113e-02 0.000e+00
3.260e+00 -1.110e-02 0.000e+00
3.270e+00 -1.099e-02 0.000e+00
3.280e+00 -1.082e-02 0.000e+00
3.290e+00 -1.057e-02 0.000e+00
3.300e+00 -1.026e-02 0.000e+00
3.310e+00 -9.895e-03 0.000e+00
3.320e+00 -9.485e-03 0.000e+00
3.330e+00 -9.041e-03 0.000e+00
3.340e+00 -8.575e-03 0.000e+00
3.350e+00 -8.097e-03 0.000e+00
3.360e+00 -7.616e-03 0.000e+00
3.370e+00 -7.140e-03 0.000e+00
3.380e+00 -6.676e-03 0.000e+00
3.390e+00 -6.229e-03 0.000e+00
3.400e+00 -5.806e-03 0.000e+00
3.410e+00 -5.412e-03 0.000e+00
3.420e+00 -5.053e-03 0.000e+00
3.430e+00 -4.737e-03 0.000e+00
3.440e+00 -4.469e-03 0.000e+00
3.450e+00 -4.256e-03 0.000e+00
3.460e+00 -4.099e-03 0.000e+00
3.470e+00 -3.994e-03 0.000e+00
3.480e+00 -3.929e-03 0.000e+00
3.490e+00 -3.887e-03 0.000e+00
3.500e+00 -3.845e-03 0.000e+00
3.510e+00 -3.780e-03 0.000e+00
3.520e+00 -3.673e-03 0.000e+00
3.530e+00 -3.507e-03 0.000e+00
3.540e+00 -3.274e-03 0.000e+00
3.550e+00 -2.968e-03 0.000e+00
3.560e+00 -2.592e-03 0.000e+00
3.570e+00 -2.152e-03 0.000e+00
3.580e+00 -1.657e-03 0.000e+00
3.590e+00 -1.117e-03 0.000e+00
3.600e+00 -5.436e-04 0.000e+00
3.610e+00 5.161e-05 0.000e+00
3.620e+00 6.565e-04 0.000e+00
3.630e+00 1.258e-03 0.000e+00
3.640e+00 1.843e-03 0.000e+00
3.650e+00 2.398e-03 0.000e+00
3.660e+00 2.910e-03 0.000e+00
3.670e+00 3.370e-03 0.000e+00
3.680e+00 3.776e-03 0.000e+00
3.690e+00 4.129e-03 0.000e+00
3.700e+00 4.435e-03 0.000e+00
3.710e+00 4.705e-03 0.000e+00
3.720e+00 4.946e-03 0.000e+00
3.730e+00 5.167e-03 0.000e+00
3.740e+00 5.377e-03 0.000e+00
3.750e+00 5.581e-03 0.000e+00
3.760e+00 5.787e-03 0.000e+00
3.770e+00 6.001e-03 0.000e+00
3.780e+00 6.227e-03 0.000e+00
3.790e+00 6.468e-03 0.000e+00
3.800e+00 6.725e-03 0.000e+00
3.810e+00 7.001e-03 0.000e+00
3.820e+00 7.297e-03 0.000e+00
3.830e+00 7.614e-03 0.000e+00
3.840e+00 7.957e-03 0.000e+00
3.850e+00 8.325e-03 0.000e+00
3.860e+00 8.721e-03 0.000e+00
3.870e+00 9.147e-03 0.000e+00
3.880e+00 9.601e-03 0.000e+00
3.890e+00 1.008e-02 0.000e+00
3.900e+00 1.059e-02 0.000e+00
3.910e+00 1.111e-02 0.000e+00
3.920e+00 1.165e-02 0.000e+00
3.930e+00 1.219e-02 0.000e+00
3.940e+00 1.273e-02 0.000e+00
3.950e+00 1.325e-02 0.000e+00
3.960e+00 1.376e-02 0.000e+00
3.970e+00 1.423e-02 0.000e+00
3.980e+00 1.466e-02 0.000e+00
3.990e+00 1.505e-02 0.000e+00
4.000e+00 1.539e-02 0.000e+00
4.010e+00 1.567e-02 0.000e+00
4.020e+00 1.591e-02 0.000e+00
4.030e+00 1.609e-02 0.000e+00
4.040e+00 1.623e-02 0.000e+00
4.050e+00 1.632e-02 0.000e+00
4.060e+00 1.638e-02 0.000e+00
4.070e+00 1.641e-02 0.000e+00
4.080e+00 1.642e-02 0.000e+00
4.090e+00 1.641e-02 0.000e+00
4.100e+00 1.640e-02 0.000e+00
4.110e+00 1.639e-02 0.000e+00
4.120e+00 1.641e-02 0.000e+00
4.130e+00 1.647e-02 0.000e+00
4.140e+00 1.656e-02 0.000e+00
4.150e+00 1.671e-02 0.000e+00
4.160e+00 1.691e-02 0.000e+00
4.170e+00 1.715e-02 0.000e+00
4.180e+00 1.745e-02 0.000e+00
4.190e+00 1.779e-02 0.000e+00
4.200e+00 1.816e-02 0.000e+00
4.210e+00 1.857e-02 0.000e+00
4.220e+00 1.900e-02 0.000e+00
4.230e+00 1.944e-02 0.000e+00
4.240e+00 1.989e-02 0.000e+00
4.250e+00 2.033e-02 0.000e+00
4.260e+00 2.075e-02 0.000e+00
4.270e+00 2.112e-02 0.000e+00
4.280e+00 2.143e-02 0.000e+00
4.290e+00 2.167e-02 0.000e+00
4.300e+00 2.184e-02 0.000e+00
4.310e+00 2.193e-02 0.000e+00
4.320e+00 2.193e-02 0.000e+00
4.330e+00 2.187e-02 0.000e+00
4.340e+00 2.173e-02 0.000e+00
4.350e+00 2.154e-02 0.000e+00
4.360e+00 2.130e-02 0.000e+00
4.370e+00 2.103e-02 0.000e+00
4.380e+00 2.075e-02 0.000e+00
4.390e+00 2.045e-02 0.000e+00
4.400e+00 2.015e-02 0.000e+00
4.410e+00 1.984e-02 0.000e+00
4.420e+00 1.953e-02 0.000e+00
4.430e+00 1.921e-02 0.000e+00
4.440e+00 1.888e-02 0.000e+00
4.450e+00 1.855e-02 0.000e+00
4.460e+00 1.821e-02 0.000e+00
4.470e+00 1.787e-02 0.000e+00
4.480e+00 1.752e-02 0.000e+00
4.490e+00 1.717e-02 0.000e+00
4.500e+00 1.683e-02 0.000e+00
4.510e+00 1.648e-02 0.000e+00
4.520e+00 1.614e-02 0.000e+00
4.530e+00 1.580e-02 0.000e+00
4.540e+00 1.546e-02 0.000e+00
4.550e+00 1.514e-02 0.000e+00
4.560e+00 1.482e-02 0.000e+00
4.570e+00 1.452e-02 0.000e+00
4.580e+00 1.423e-02 0.000e+00
4.590e+00 1.395e-02 0.000e+00
4.600e+00 1.368e-02 0.000e+00
4.610e+00 1.343e-02 0.000e+00
4.620e+00 1.320e-02 0.000e+00
4.630e+00 1.298e-02 0.000e+00
4.640e+00 1.279e-02 0.000e+00
4.650e+00 1.262e-02 0.000e+00
4.660e+00 1.247e-02 0.000e+00
4.670e+00 1.234e-02 0.000e+00
4.680e+00 1.223e-02 0.000e+00
4.690e+00 1.214e-02 0.000e+00
4.700e+00 1.206e-02 0.000e+00
4.710e+00 1.198e-02 0.000e+00
4.720e+00 1.192e-02 0.000e+00
4.730e+00 1.186e-02 0.000e+00
4.740e+00 1.180e-02 0.000e+00
4.750e+00 1.175e-02 0.000e+00
4.760e+00 1.170e-02 0.000e+00
4.770e+00 1.167e-02 0.000e+00
4.780e+00 1.163e-02 0.000e+00
4.790e+00 1.161e-02 0.000e+00
4.800e+00 1.160e-02 0.000e+00
4.810e+00 1.161e-02 0.000e+00
4.820e+00 1.163e-02 0.000e+00
4.830e+00 1.166e-02 0.000e+00
4.840e+00 1.171e-02 0.000e+00
4.850e+00 1.177e-02 0.000e+00
4.860e+00 1.184e-02 0.000e+00
4.870e+00 1.191e-02 0.000e+00
4.880e+00 1.198e-02 0.000e+00
4.890e+00 1.205e-02 0.000e+00
4.900e+00 1.213e-02 0.000e+00
4.910e+00 1.220e-02 0.000e+00
4.920e+00 1.229e-02 0.000e+00
4.930e+00 1.238e-02 0.000e+00
4.940e+00 1.247e-02 0.000e+00
4.950e+00 1.256e-02 0.000e+00
4.960e+00 1.264e-02 0.000e+00
4.970e+00 1.271e-02 0.000e+00
4.980e+00 1.277e-02 0.000e+00
4.990e+00 1.280e-02 0.000e+00
5.000e+00 1.281e-02 0.000e+00
5.010e+00 1.280e-02 0.000e+00
5.020e+00 1.278e-02 0.000e+00
5.030e+00 1.274e-02 0.000e+00
5.040e+00 1.269e-02 0.000e+00
5.050e+00 1.263e-02 0.000e+00
5.060e+00 1.258e-02 0.000e+00
5.070e+00 1.252e-02 0.000e+00
5.080e+00 1.245e-02 0.000e+00
5.090e+00 1.238e-02 0.000e+00
5.100e+00 1.229e-02 0.000e+00
5.110e+00 1.219e-02 0.000e+00
5.120e+00 1.207e-02 0.000e+00
5.130e+00 1.192e-02 0.000e+00
5.140e+00 1.175e-02 0.000e+00
5.150e+00 1.156e-02 0.000e+00
5.160e+00 1.136e-02 0.000e+00
5.170e+00 1.116e-02 0.000e+00
5.180e+00 1.096e-02 0.000e+00
5.190e+00 1.077e-02 0.000e+00
5.200e+00 1.058e-02 0.000e+00
5.210e+00 1.041e-02 0.000e+00
5.220e+00 1.025e-02 0.000e+00
5.230e+00 1.011e-02 0.000e+00
5.240e+00 1.000e-02 0.000e+00
5.250e+00 9.915e-03 0.000e+00
5.260e+00 9.858e-03 0.000e+00
5.270e+00 9.833e-03 0.000e+00
5.280e+00 9.840e-03 0.000e+00
5.290e+00 9.879e-03 0.000e+00
5.300e+00 9.950e-03 0.000e+00
5.310e+00 1.005e-02 0.000e+00
5.320e+00 1.018e-02 0.000e+00
5.330e+00 1.034e-02 0.000e+00
5.340e+00 1.052e-02 0.000e+00
5.350e+00 1.072e-02 0.000e+00
5.360e+00 1.094e-02 0.000e+00
5.370e+00 1.117e-02 0.000e+00
5.380e+00 1.140e-02 0.000e+00
5.390e+00 1.163e-02 0.000e+00
5.400e+00 1.187e-02 0.000e+00
5.410e+00 1.210e-02 0.000e+00
5.420e+00 1.232e-02 0.000e+00
5.430e+00 1.252e-02 0.000e+00
5.440e+00 1.271e-02 0.000e+00
5.450e+00 1.288e-02 0.000e+00
5.460e+00 1.303e-02 0.000e+00
5.470e+00 1.314e-02 0.000e+00
5.480e+00 1.323e-02 0.000e+00
5.490e+00 1.328e-02 0.000e+00
5.500e+00 1.331e-02 0.000e+00
5.510e+00 1.331e-02 0.000e+00
5.520e+00 1.329e-02 0.000e+00
5.530e+00 1.324e-02 0.000e+00
5.540e+00 1.317e-02 0.000e+00
5.550e+00 1.307e-02 0.000e+00
5.560e+00 1.295e-02 0.000e+00
5.570e+00 1.281e-02 0.000e+00
5.580e+00 1.264e-02 0.000e+00
5.590e+00 1.245e-02 0.000e+00
5.600e+00 1.225e-02 0.000e+00
5.610e+00 1.203e-02 0.000e+00
5.620e+00 1.180e-02 0.000e+00
5.630e+00 1.158e-02 0.000e+00
5.640e+00 1.136e-02 0.000e+00
5.650e+00 1.116e-02 0.000e+00
5.660e+00 1.098e-02 0.000e+00
5.670e+00 1.083e-02 0.000e+00
5.680e+00 1.069e-02 0.000e+00
5.690e+00 1.058e-02 0.000e+00
5.700e+00 1.048e-02 0.000e+00
5.710e+00 1.039e-02 0.000e+00
5.720e+00 1.030e-02 0.000e+00
5.730e+00 1.021e-02 0.000e+00
5.740e+00 1.012e-02 0.000e+00
5.750e+00 1.000e-02 0.000e+00
5.760e+00 9.876e-03 0.000e+00
5.770e+00 9.731e-03 0.000e+00
5.780e+00 9.571e-03 0.000e+00
5.790e+00 9.397e-03 0.000e+00
5.800e+00 9.214e-03 0.000e+00
5.810e+00 9.025e-03 0.000e+00
5.820e+00 8.831e-03 0.000e+00
5.830e+00 8.636e-03 0.000e+00
5.840e+00 8.440e-03 0.000e+00
5.850e+00 8.245e-03 0.000e+00
5.860e+00 8.048e-03 0.000e+00
5.870e+00 7.852e-03 0.000e+00
5.880e+00 7.654e-03 0.000e+00
5.890e+00 7.456e-03 0.000e+00
5.900e+00 7.256e-03 0.000e+00
5.910e+00 7.057e-03 0.000e+00
5.920e+00 6.859e-03 0.000e+00
5.930e+00 6.662e-03 0.000e+00
5.940e+00 6.469e-03 0.000e+00
5.950e+00 6.281e-03 0.000e+00
5.960e+00 6.098e-03 0.000e+00
5.970e+00 5.921e-03 0.000e+00
5.980e+00 5.752e-03 0.000e+00
5.990e+00 5.591e-03 0.000e+00
6.000e+00 5.438e-03 0.000e+00
6.010e+00 5.292e-03 0.000e+00
6.020e+00 5.155e-03 0.000e+00
6.030e+00 5.026e-03 0.000e+00
6.040e+00 4.905e-03 0.000e+00
6.050e+00 4.792e-03 0.000e+00
6.060e+00 4.688e-03 0.000e+00
6.070e+00 4.593e-03 0.000e+00
6.080e+00 4.506e-03 0.000e+00
6.090e+00 4.426e-03 0.000e+00
6.100e+00 4.353e-03 0.000e+00
6.110e+00 4.287e-03 0.000e+00
6.120e+00 4.228e-03 0.000e+00
6.130e+00 4.175e-03 0.000e+00
6.140e+00 4.130e-03 0.000e+00
6.150e+00 4.093e-03 0.000e+00
6.160e+00 4.065e-03 0.000e+00
6.170e+00 4.044e-03 0.000e+00
6.180e+00 4.030e-03 0.000e+00
6.190e+00 4.022e-03 0.000e+00
6.200e+00 4.020e-03 0.000e+00
6.210e+00 4.022e-03 0.000e+00
6.220e+00 4.030e-03 0.000e+00
6.230e+00 4.044e-03 0.000e+00
6.240e+00 4.065e-03 0.000e+00
6.250e+00 4.095e-03 0.000e+00
6.260e+00 4.135e-03 0.000e+00
6.270e+00 4.185e-03 0.000e+00
6.280e+00 4.245e-03 0.000e+00
6.290e+00 4.313e-03 0.000e+00
6.300e+00 4.389e-03 0.000e+00
6.310e+00 4.470e-03 0.000e+00
6.320e+00 4.557e-03 0.000e+00
6.330e+00 4.648e-03 0.000e+00
6.340e+00 4.741e-03 0.000e+00
6.350e+00 4.835e-03 0.000e+00
6.360e+00 4.930e-03 0.000e+00
6.370e+00 5.024e-03 0.000e+00
6.380e+00 5.117e-03 0.000e+00
6.390e+00 5.211e-03 0.000e+00
6.400e+00 5.306e-03 0.000e+00
6.410e+00 5.405e-03 0.000e+00
6.420e+00 5.510e-03 0.000e+00
6.430e+00 5.621e-03 0.000e+00
6.440e+00 5.740e-03 0.000e+00
6.450e+00 5.865e-03 0.000e+00
6.460e+00 5.996e-03 0.000e+00
6.470e+00 6.131e-03 0.000e+00
6.480e+00 6.267e-03 0.000e+00
6.490e+00 6.403e-03 0.000e+00
6.500e+00 6.539e-03 0.000e+00
6.510e+00 6.673e-03 0.000e+00
6.520e+00 6.805e-03 0.000e+00
6.530e+00 6.936e-03 0.000e+00
6.540e+00 7.065e-03 0.000e+00
6.550e+00 7.192e-03 0.000e+00
6.560e+00 7.317e-03 0.000e+00
6.570e+00 7.441e-03 0.000e+00
6.580e+00 7.563e-03 0.000e+00
6.590e+00 7.685e-03 0.000e+00
6.600e+00 7.804e-03 0.000e+00
6.610e+00 7.911e-03 0.000e+00
