# Time (ps)      real(F_0)
0.000e+00 1.000e+00
1.000e-01 8.918e-01
2.000e-01 8.640e-01
3.000e-01 8.510e-01
4.000e-01 8.408e-01
5.000e-01 8.312e-01
6.000e-01 8.219e-01
7.000e-01 8.128e-01
8.000e-01 8.038e-01
9.000e-01 7.949e-01
1.000e+00 7.863e-01
1.100e+00 7.777e-01
1.200e+00 7.693e-01
1.300e+00 7.611e-01
1.400e+00 7.530e-01
1.500e+00 7.450e-01
1.600e+00 7.371e-01
1.700e+00 7.294e-01
1.800e+00 7.218e-01
1.900e+00 7.144e-01
2.000e+00 7.070e-01
2.100e+00 6.998e-01
2.200e+00 6.927e-01
2.300e+00 6.857e-01
2.400e+00 6.789e-01
2.500e+00 6.721e-01
2.600e+00 6.655e-01
2.700e+00 6.589e-01
2.800e+00 6.525e-01
2.900e+00 6.462e-01
3.000e+00 6.400e-01
3.100e+00 6.338e-01
3.200e+00 6.278e-01
3.300e+00 6.219e-01
3.400e+00 6.161e-01
3.500e+00 6.103e-01
3.600e+00 6.047e-01
3.700e+00 5.991e-01
3.800e+00 5.936e-01
3.900e+00 5.883e-01
4.000e+00 5.830e-01
4.100e+00 5.777e-01
4.200e+00 5.726e-01
4.300e+00 5.676e-01
4.400e+00 5.626e-01
4.500e+00 5.577e-01
4.600e+00 5.529e-01
4.700e+00 5.481e-01
4.800e+00 5.434e-01
4.900e+00 5.388e-01
5.000e+00 5.343e-01
5.100e+00 5.299e-01
5.200e+00 5.255e-01
5.300e+00 5.211e-01
5.400e+00 5.169e-01
5.500e+00 5.127e-01
5.600e+00 5.085e-01
5.700e+00 5.045e-01
5.800e+00 5.005e-01
5.900e+00 4.965e-01
6.000e+00 4.926e-01
6.100e+00 4.888e-01
6.200e+00 4.850e-01
6.300e+00 4.813e-01
6.400e+00 4.776e-01
6.500e+00 4.740e-01
6.600e+00 4.704e-01
6.700e+00 4.669e-01
6.800e+00 4.635e-01
6.900e+00 4.601e-01
7.000e+00 4.567e-01
7.100e+00 4.534e-01
7.200e+00 4.501e-01
7.300e+00 4.469e-01
7.400e+00 4.437e-01
7.500e+00 4.406e-01
7.600e+00 4.375e-01
7.700e+00 4.345e-01
7.800e+00 4.315e-01
7.900e+00 4.285e-01
8.000e+00 4.256e-01
8.100e+00 4.227e-01
8.200e+00 4.199e-01
8.300e+00 4.171e-01
8.400e+00 4.143e-01
8.500e+00 4.116e-01
8.600e+00 4.089e-01
8.700e+00 4.062e-01
8.800e+00 4.036e-01
8.900e+00 4.010e-01
9.000e+00 3.985e-01
9.100e+00 3.960e-01
9.200e+00 3.935e-01
9.300e+00 3.910e-01
9.400e+00 3.886e-01
9.500e+00 3.862e-01
9.600e+00 3.839e-01
9.700e+00 3.815e-01
9.800e+00 3.792e-01
9.900e+00 3.770e-01
1.000e+01 3.747e-01
1.010e+01 3.725e-01
1.020e+01 3.703e-01
1.030e+01 3.682e-01
1.040e+01 3.660e-01
1.050e+01 3.639e-01
1.060e+01 3.619e-01
1.070e+01 3.598e-01
1.080e+01 3.578e-01
1.090e+01 3.558e-01
1.100e+01 3.538e-01
1.110e+01 3.518e-01
1.120e+01 3.499e-01
1.130e+01 3.480e-01
1.140e+01 3.461e-01
1.150e+01 3.442e-01
1.160e+01 3.424e-01
1.170e+01 3.405e-01
1.180e+01 3.387e-01
1.190e+01 3.370e-01
1.200e+01 3.352e-01
1.210e+01 3.335e-01
1.220e+01 3.317e-01
1.230e+01 3.300e-01
1.240e+01 3.283e-01
1.250e+01 3.267e-01
1.260e+01 3.250e-01
1.270e+01 3.234e-01
1.280e+01 3.218e-01
1.290e+01 3.202e-01
1.300e+01 3.186e-01
1.310e+01 3.170e-01
1.320e+01 3.155e-01
1.330e+01 3.140e-01
1.340e+01 3.124e-01
1.350e+01 3.109e-01
1.360e+01 3.095e-01
1.370e+01 3.080e-01
1.380e+01 3.065e-01
1.390e+01 3.051e-01
1.400e+01 3.037e-01
1.410e+01 3.023e-01
1.420e+01 3.009e-01
1.430e+01 2.995e-01
1.440e+01 2.981e-01
1.450e+01 2.967e-01
1.460e+01 2.954e-01
1.470e+01 2.941e-01
1.480e+01 2.928e-01
1.490e+01 2.914e-01
1.500e+01 2.902e-01
1.510e+01 2.889e-01
1.520e+01 2.876e-01
1.530e+01 2.863e-01
1.540e+01 2.851e-01
1.550e+01 2.839e-01
1.560e+01 2.826e-01
1.570e+01 2.814e-01
1.580e+01 2.802e-01
1.590e+01 2.790e-01
1.600e+01 2.778e-01
1.610e+01 2.767e-01
1.620e+01 2.755e-01
1.630e+01 2.744e-01
1.640e+01 2.732e-01
1.650e+01 2.721e-01
1.660e+01 2.710e-01
1.670e+01 2.698e-01
1.680e+01 2.687e-01
1.690e+01 2.676e-01
1.700e+01 2.666e-01
1.710e+01 2.655e-01
1.720e+01 2.644e-01
1.730e+01 2.634e-01
1.740e+01 2.623e-01
1.750e+01 2.613e-01
1.760e+01 2.602e-01
1.770e+01 2.592e-01
1.780e+01 2.582e-01
1.790e+01 2.572e-01
1.800e+01 2.562e-01
1.810e+01 2.552e-01
1.820e+01 2.542e-01
1.830e+01 2.532e-01
1.840e+01 2.522e-01
1.850e+01 2.513e-01
1.860e+01 2.503e-01
1.870e+01 2.493e-01
1.880e+01 2.484e-01
1.890e+01 2.475e-01
1.900e+01 2.465e-01
1.910e+01 2.456e-01
1.920e+01 2.447e-01
1.930e+01 2.438e-01
1.940e+01 2.429e-01
1.950e+01 2.420e-01
1.960e+01 2.411e-01
1.970e+01 2.402e-01
1.980e+01 2.393e-01
1.990e+01 2.384e-01
2.000e+01 2.375e-01
2.010e+01 2.367e-01
2.020e+01 2.358e-01
2.030e+01 2.350e-01
2.040e+01 2.341e-01
2.050e+01 2.333e-01
2.060e+01 2.324e-01
2.070e+01 2.316e-01
2.080e+01 2.308e-01
2.090e+01 2.299e-01
2.100e+01 2.291e-01
2.110e+01 2.283e-01
2.120e+01 2.275e-01
2.130e+01 2.267e-01
2.140e+01 2.259e-01
2.150e+01 2.251e-01
2.160e+01 2.243e-01
2.170e+01 2.235e-01
2.180e+01 2.228e-01
2.190e+01 2.220e-01
2.200e+01 2.212e-01
2.210e+01 2.204e-01
2.220e+01 2.197e-01
2.230e+01 2.189e-01
2.240e+01 2.182e-01
2.250e+01 2.174e-01
2.260e+01 2.167e-01
2.270e+01 2.159e-01
2.280e+01 2.152e-01
2.290e+01 2.145e-01
2.300e+01 2.137e-01
2.310e+01 2.130e-01
2.320e+01 2.123e-01
2.330e+01 2.116e-01
2.340e+01 2.109e-01
2.350e+01 2.102e-01
2.360e+01 2.095e-01
2.370e+01 2.088e-01
2.380e+01 2.081e-01
2.390e+01 2.074e-01
2.400e+01 2.067e-01
2.410e+01 2.060e-01
2.420e+01 2.053e-01
2.430e+01 2.046e-01
2.440e+01 2.039e-01
2.450e+01 2.033e-01
2.460e+01 2.026e-01
2.470e+01 2.019e-01
2.480e+01 2.013e-01
2.490e+01 2.006e-01
2.500e+01 1.999e-01
2.510e+01 1.993e-01
2.520e+01 1.986e-01
2.530e+01 1.980e-01
2.540e+01 1.973e-01
2.550e+01 1.967e-01
2.560e+01 1.961e-01
2.570e+01 1.954e-01
2.580e+01 1.948e-01
2.590e+01 1.942e-01
2.600e+01 1.935e-01
2.610e+01 1.929e-01
2.620e+01 1.923e-01
2.630e+01 1.917e-01
2.640e+01 1.910e-01
2.650e+01 1.904e-01
2.660e+01 1.898e-01
2.670e+01 1.892e-01
2.680e+01 1.886e-01
2.690e+01 1.880e-01
2.700e+01 1.874e-01
2.710e+01 1.868e-01
2.720e+01 1.862e-01
2.730e+01 1.856e-01
2.740e+01 1.850e-01
2.750e+01 1.844e-01
2.760e+01 1.839e-01
2.770e+01 1.833e-01
2.780e+01 1.827e-01
2.790e+01 1.821e-01
2.800e+01 1.815e-01
2.810e+01 1.810e-01
2.820e+01 1.804e-01
2.830e+01 1.798e-01
2.840e+01 1.793e-01
2.850e+01 1.787e-01
2.860e+01 1.781e-01
2.870e+01 1.776e-01
2.880e+01 1.770e-01
2.890e+01 1.765e-01
2.900e+01 1.759e-01
2.910e+01 1.754e-01
2.920e+01 1.748e-01
2.930e+01 1.743e-01
2.940e+01 1.737e-01
2.950e+01 1.732e-01
2.960e+01 1.726e-01
2.970e+01 1.721e-01
2.980e+01 1.716e-01
2.990e+01 1.710e-01
3.000e+01 1.705e-01
3.010e+01 1.700e-01
3.020e+01 1.694e-01
3.030e+01 1.689e-01
3.040e+01 1.684e-01
3.050e+01 1.679e-01
3.060e+01 1.674e-01
3.070e+01 1.668e-01
3.080e+01 1.663e-01
3.090e+01 1.658e-01
3.100e+01 1.653e-01
3.110e+01 1.648e-01
3.120e+01 1.643e-01
3.130e+01 1.638e-01
3.140e+01 1.633e-01
3.150e+01 1.628e-01
3.160e+01 1.623e-01
3.170e+01 1.618e-01
3.180e+01 1.613e-01
3.190e+01 1.608e-01
3.200e+01 1.603e-01
3.210e+01 1.598e-01
3.220e+01 1.593e-01
3.230e+01 1.588e-01
3.240e+01 1.583e-01
3.250e+01 1.578e-01
3.260e+01 1.574e-01
3.270e+01 1.569e-01
3.280e+01 1.564e-01
3.290e+01 1.559e-01
3.300e+01 1.554e-01
3.310e+01 1.550e-01
3.320e+01 1.545e-01
3.330e+01 1.540e-01
3.340e+01 1.536e-01
3.350e+01 1.531e-01
3.360e+01 1.526e-01
3.370e+01 1.522e-01
3.380e+01 1.517e-01
3.390e+01 1.512e-01
3.400e+01 1.508e-01
3.410e+01 1.503e-01
3.420e+01 1.499e-01
3.430e+01 1.494e-01
3.440e+01 1.490e-01
3.450e+01 1.485e-01
3.460e+01 1.481e-01
3.470e+01 1.476e-01
3.480e+01 1.472e-01
3.490e+01 1.467e-01
3.500e+01 1.463e-01
3.510e+01 1.458e-01
3.520e+01 1.454e-01
3.530e+01 1.449e-01
3.540e+01 1.445e-01
3.550e+01 1.441e-01
3.560e+01 1.436e-01
3.570e+01 1.432e-01
3.580e+01 1.428e-01
3.590e+01 1.423e-01
3.600e+01 1.419e-01
3.610e+01 1.415e-01
3.620e+01 1.411e-01
3.630e+01 1.406e-01
3.640e+01 1.402e-01
3.650e+01 1.398e-01
3.660e+01 1.394e-01
3.670e+01 1.389e-01
3.680e+01 1.385e-01
3.690e+01 1.381e-01
3.700e+01 1.377e-01
3.710e+01 1.373e-01
3.720e+01 1.369e-01
3.730e+01 1.364e-01
3.740e+01 1.360e-01
3.750e+01 1.356e-01
3.760e+01 1.352e-01
3.770e+01 1.348e-01
3.780e+01 1.344e-01
3.790e+01 1.340e-01
3.800e+01 1.336e-01
3.810e+01 1.332e-01
3.820e+01 1.328e-01
3.830e+01 1.324e-01
3.840e+01 1.320e-01
3.850e+01 1.316e-01
3.860e+01 1.312e-01
3.870e+01 1.308e-01
3.880e+01 1.304e-01
3.890e+01 1.300e-01
3.900e+01 1.296e-01
3.910e+01 1.293e-01
3.920e+01 1.289e-01
3.930e+01 1.285e-01
3.940e+01 1.281e-01
3.950e+01 1.277e-01
3.960e+01 1.273e-01
3.970e+01 1.269e-01
3.980e+01 1.266e-01
3.990e+01 1.262e-01
4.000e+01 1.258e-01
4.010e+01 1.254e-01
4.020e+01 1.251e-01
4.030e+01 1.247e-01
4.040e+01 1.243e-01
4.050e+01 1.239e-01
4.060e+01 1.236e-01
4.070e+01 1.232e-01
4.080e+01 1.228e-01
4.090e+01 1.225e-01
4.100e+01 1.221e-01
4.110e+01 1.217e-01
4.120e+01 1.214e-01
4.130e+01 1.210e-01
4.140e+01 1.206e-01
4.150e+01 1.203e-01
4.160e+01 1.199e-01
4.170e+01 1.196e-01
4.180e+01 1.192e-01
4.190e+01 1.189e-01
4.200e+01 1.185e-01
4.210e+01 1.181e-01
4.220e+01 1.178e-01
4.230e+01 1.174e-01
4.240e+01 1.171e-01
4.250e+01 1.167e-01
4.260e+01 1.164e-01
4.270e+01 1.160e-01
4.280e+01 1.157e-01
4.290e+01 1.154e-01
4.300e+01 1.150e-01
4.310e+01 1.147e-01
4.320e+01 1.143e-01
4.330e+01 1.140e-01
4.340e+01 1.136e-01
4.350e+01 1.133e-01
4.360e+01 1.130e-01
4.370e+01 1.126e-01
4.380e+01 1.123e-01
4.390e+01 1.120e-01
4.400e+01 1.116e-01
4.410e+01 1.113e-01
4.420e+01 1.110e-01
4.430e+01 1.106e-01
4.440e+01 1.103e-01
4.450e+01 1.100e-01
4.460e+01 1.096e-01
4.470e+01 1.093e-01
4.480e+01 1.090e-01
4.490e+01 1.087e-01
4.500e+01 1.083e-01
4.510e+01 1.080e-01
4.520e+01 1.077e-01
4.530e+01 1.074e-01
4.540e+01 1.071e-01
4.550e+01 1.067e-01
4.560e+01 1.064e-01
4.570e+01 1.061e-01
4.580e+01 1.058e-01
4.590e+01 1.055e-01
4.600e+01 1.052e-01
4.610e+01 1.048e-01
4.620e+01 1.045e-01
4.630e+01 1.042e-01
4.640e+01 1.039e-01
4.650e+01 1.036e-01
4.660e+01 1.033e-01
4.670e+01 1.030e-01
4.680e+01 1.027e-01
4.690e+01 1.024e-01
4.700e+01 1.021e-01
4.710e+01 1.018e-01
4.720e+01 1.015e-01
4.730e+01 1.012e-01
4.740e+01 1.009e-01
4.750e+01 1.006e-01
4.760e+01 1.003e-01
4.770e+01 9.997e-02
4.780e+01 9.967e-02
4.790e+01 9.937e-02
4.800e+01 9.908e-02
4.810e+01 9.878e-02
4.820e+01 9.849e-02
4.830e+01 9.820e-02
4.840e+01 9.791e-02
4.850e+01 9.761e-02
4.860e+01 9.732e-02
4.870e+01 9.704e-02
4.880e+01 9.675e-02
4.890e+01 9.646e-02
4.900e+01 9.617e-02
4.910e+01 9.589e-02
4.920e+01 9.560e-02
4.930e+01 9.532e-02
4.940e+01 9.503e-02
4.950e+01 9.475e-02
4.960e+01 9.447e-02
4.970e+01 9.419e-02
4.980e+01 9.391e-02
4.990e+01 9.363e-02
5.000e+01 9.335e-02
5.010e+01 9.308e-02
5.020e+01 9.280e-02
5.030e+01 9.252e-02
5.040e+01 9.225e-02
5.050e+01 9.197e-02
5.060e+01 9.170e-02
5.070e+01 9.143e-02
5.080e+01 9.116e-02
5.090e+01 9.089e-02
5.100e+01 9.062e-02
5.110e+01 9.035e-02
5.120e+01 9.008e-02
5.130e+01 8.981e-02
5.140e+01 8.954e-02
5.150e+01 8.928e-02
5.160e+01 8.901e-02
5.170e+01 8.875e-02
5.180e+01 8.848e-02
5.190e+01 8.822e-02
5.200e+01 8.796e-02
5.210e+01 8.770e-02
5.220e+01 8.744e-02
5.230e+01 8.718e-02
5.240e+01 8.692e-02
5.250e+01 8.666e-02
5.260e+01 8.640e-02
5.270e+01 8.615e-02
5.280e+01 8.589e-02
5.290e+01 8.564e-02
5.300e+01 8.538e-02
5.310e+01 8.513e-02
5.320e+01 8.488e-02
5.330e+01 8.462e-02
5.340e+01 8.437e-02
5.350e+01 8.412e-02
5.360e+01 8.387e-02
5.370e+01 8.362e-02
5.380e+01 8.338e-02
5.390e+01 8.313e-02
5.400e+01 8.288e-02
5.410e+01 8.264e-02
5.420e+01 8.239e-02
5.430e+01 8.215e-02
5.440e+01 8.190e-02
5.450e+01 8.166e-02
5.460e+01 8.142e-02
5.470e+01 8.117e-02
5.480e+01 8.093e-02
5.490e+01 8.069e-02
5.500e+01 8.045e-02
5.510e+01 8.021e-02
5.520e+01 7.998e-02
5.530e+01 7.974e-02
5.540e+01 7.950e-02
5.550e+01 7.927e-02
5.560e+01 7.903e-02
5.570e+01 7.880e-02
5.580e+01 7.856e-02
5.590e+01 7.833e-02
5.600e+01 7.810e-02
5.610e+01 7.787e-02
5.620e+01 7.763e-02
5.630e+01 7.740e-02
5.640e+01 7.717e-02
5.650e+01 7.695e-02
5.660e+01 7.672e-02
5.670e+01 7.649e-02
5.680e+01 7.626e-02
5.690e+01 7.604e-02
5.700e+01 7.581e-02
5.710e+01 7.559e-02
5.720e+01 7.536e-02
5.730e+01 7.514e-02
5.740e+01 7.491e-02
5.750e+01 7.469e-02
5.760e+01 7.447e-02
5.770e+01 7.425e-02
5.780e+01 7.403e-02
5.790e+01 7.381e-02
5.800e+01 7.359e-02
5.810e+01 7.337e-02
5.820e+01 7.315e-02
5.830e+01 7.294e-02
5.840e+01 7.272e-02
5.850e+01 7.251e-02
5.860e+01 7.229e-02
5.870e+01 7.208e-02
5.880e+01 7.186e-02
5.890e+01 7.165e-02
5.900e+01 7.144e-02
5.910e+01 7.122e-02
5.920e+01 7.101e-02
5.930e+01 7.080e-02
5.940e+01 7.059e-02
5.950e+01 7.038e-02
5.960e+01 7.017e-02
5.970e+01 6.997e-02
5.980e+01 6.976e-02
5.990e+01 6.955e-02
6.000e+01 6.934e-02
6.010e+01 6.914e-02
6.020e+01 6.893e-02
6.030e+01 6.873e-02
6.040e+01 6.852e-02
6.050e+01 6.832e-02
6.060e+01 6.812e-02
6.070e+01 6.792e-02
6.080e+01 6.772e-02
6.090e+01 6.751e-02
6.100e+01 6.731e-02
6.110e+01 6.711e-02
6.120e+01 6.692e-02
6.130e+01 6.672e-02
6.140e+01 6.652e-02
6.150e+01 6.632e-02
6.160e+01 6.612e-02
6.170e+01 6.593e-02
6.180e+01 6.573e-02
6.190e+01 6.554e-02
6.200e+01 6.534e-02
6.210e+01 6.515e-02
6.220e+01 6.496e-02
6.230e+01 6.476e-02
6.240e+01 6.457e-02
6.250e+01 6.438e-02
6.260e+01 6.419e-02
6.270e+01 6.400e-02
6.280e+01 6.381e-02
6.290e+01 6.362e-02
6.300e+01 6.343e-02
6.310e+01 6.324e-02
6.320e+01 6.306e-02
6.330e+01 6.287e-02
6.340e+01 6.268e-02
6.350e+01 6.250e-02
6.360e+01 6.231e-02
6.370e+01 6.213e-02
6.380e+01 6.194e-02
6.390e+01 6.176e-02
6.400e+01 6.157e-02
6.410e+01 6.139e-02
6.420e+01 6.121e-02
6.430e+01 6.103e-02
6.440e+01 6.085e-02
6.450e+01 6.067e-02
6.460e+01 6.049e-02
6.470e+01 6.031e-02
6.480e+01 6.013e-02
6.490e+01 5.995e-02
6.500e+01 5.977e-02
6.510e+01 5.959e-02
6.520e+01 5.942e-02
6.530e+01 5.924e-02
6.540e+01 5.907e-02
6.550e+01 5.889e-02
6.560e+01 5.872e-02
6.570e+01 5.854e-02
6.580e+01 5.837e-02
6.590e+01 5.819e-02
6.600e+01 5.802e-02
6.610e+01 5.785e-02
6.620e+01 5.768e-02
6.630e+01 5.751e-02
6.640e+01 5.734e-02
6.650e+01 5.717e-02
6.660e+01 5.700e-02
6.670e+01 5.683e-02
6.680e+01 5.666e-02
6.690e+01 5.649e-02
6.700e+01 5.632e-02
6.710e+01 5.616e-02
6.720e+01 5.599e-02
6.730e+01 5.582e-02
6.740e+01 5.566e-02
6.750e+01 5.549e-02
6.760e+01 5.533e-02
6.770e+01 5.516e-02
6.780e+01 5.500e-02
6.790e+01 5.484e-02
6.800e+01 5.468e-02
6.810e+01 5.451e-02
6.820e+01 5.435e-02
6.830e+01 5.419e-02
6.840e+01 5.403e-02
6.850e+01 5.387e-02
6.860e+01 5.371e-02
6.870e+01 5.355e-02
6.880e+01 5.339e-02
6.890e+01 5.323e-02
6.900e+01 5.308e-02
6.910e+01 5.292e-02
6.920e+01 5.276e-02
6.930e+01 5.260e-02
6.940e+01 5.245e-02
6.950e+01 5.229e-02
6.960e+01 5.214e-02
6.970e+01 5.198e-02
6.980e+01 5.183e-02
6.990e+01 5.167e-02
7.000e+01 5.152e-02
7.010e+01 5.137e-02
7.020e+01 5.122e-02
7.030e+01 5.106e-02
7.040e+01 5.091e-02
7.050e+01 5.076e-02
7.060e+01 5.061e-02
7.070e+01 5.046e-02
7.080e+01 5.031e-02
7.090e+01 5.016e-02
7.100e+01 5.001e-02
7.110e+01 4.987e-02
7.120e+01 4.972e-02
7.130e+01 4.957e-02
7.140e+01 4.942e-02
7.150e+01 4.928e-02
7.160e+01 4.913e-02
7.170e+01 4.898e-02
7.180e+01 4.884e-02
7.190e+01 4.869e-02
7.200e+01 4.855e-02
7.210e+01 4.841e-02
7.220e+01 4.826e-02
7.230e+01 4.812e-02
7.240e+01 4.798e-02
7.250e+01 4.783e-02
7.260e+01 4.769e-02
7.270e+01 4.755e-02
7.280e+01 4.741e-02
7.290e+01 4.727e-02
7.300e+01 4.713e-02
7.310e+01 4.699e-02
7.320e+01 4.685e-02
7.330e+01 4.671e-02
7.340e+01 4.657e-02
7.350e+01 4.643e-02
7.360e+01 4.630e-02
7.370e+01 4.616e-02
7.380e+01 4.602e-02
7.390e+01 4.589e-02
7.400e+01 4.575e-02
7.410e+01 4.561e-02
7.420e+01 4.548e-02
7.430e+01 4.534e-02
7.440e+01 4.521e-02
7.450e+01 4.508e-02
7.460e+01 4.494e-02
7.470e+01 4.481e-02
7.480e+01 4.468e-02
7.490e+01 4.454e-02
7.500e+01 4.441e-02
7.510e+01 4.428e-02
7.520e+01 4.415e-02
7.530e+01 4.402e-02
7.540e+01 4.389e-02
7.550e+01 4.376e-02
7.560e+01 4.363e-02
7.570e+01 4.350e-02
7.580e+01 4.337e-02
7.590e+01 4.324e-02
7.600e+01 4.311e-02
7.610e+01 4.298e-02
7.620e+01 4.286e-02
7.630e+01 4.273e-02
7.640e+01 4.260e-02
7.650e+01 4.248e-02
7.660e+01 4.235e-02
7.670e+01 4.222e-02
7.680e+01 4.210e-02
7.690e+01 4.197e-02
7.700e+01 4.185e-02
7.710e+01 4.173e-02
7.720e+01 4.160e-02
7.730e+01 4.148e-02
7.740e+01 4.135e-02
7.750e+01 4.123e-02
7.760e+01 4.111e-02
7.770e+01 4.099e-02
7.780e+01 4.087e-02
7.790e+01 4.075e-02
7.800e+01 4.062e-02
7.810e+01 4.050e-02
7.820e+01 4.038e-02
7.830e+01 4.026e-02
7.840e+01 4.014e-02
7.850e+01 4.003e-02
7.860e+01 3.991e-02
7.870e+01 3.979e-02
7.880e+01 3.967e-02
7.890e+01 3.955e-02
7.900e+01 3.944e-02
7.910e+01 3.932e-02
7.920e+01 3.920e-02
7.930e+01 3.909e-02
7.940e+01 3.897e-02
7.950e+01 3.885e-02
7.960e+01 3.874e-02
7.970e+01 3.862e-02
7.980e+01 3.851e-02
7.990e+01 3.840e-02
8.000e+01 3.828e-02
8.010e+01 3.817e-02
8.020e+01 3.805e-02
8.030e+01 3.794e-02
8.040e+01 3.783e-02
8.050e+01 3.772e-02
8.060e+01 3.761e-02
8.070e+01 3.749e-02
8.080e+01 3.738e-02
8.090e+01 3.727e-02
8.100e+01 3.716e-02
8.110e+01 3.705e-02
8.120e+01 3.694e-02
8.130e+01 3.683e-02
8.140e+01 3.672e-02
8.150e+01 3.661e-02
8.160e+01 3.650e-02
8.170e+01 3.640e-02
8.180e+01 3.629e-02
8.190e+01 3.618e-02
8.200e+01 3.607e-02
8.210e+01 3.597e-02
8.220e+01 3.586e-02
8.230e+01 3.575e-02
8.240e+01 3.565e-02
8.250e+01 3.554e-02
8.260e+01 3.544e-02
8.270e+01 3.533e-02
8.280e+01 3.523e-02
8.290e+01 3.512e-02
8.300e+01 3.502e-02
8.310e+01 3.491e-02
8.320e+01 3.481e-02
8.330e+01 3.471e-02
8.340e+01 3.460e-02
8.350e+01 3.450e-02
8.360e+01 3.440e-02
8.370e+01 3.430e-02
8.380e+01 3.420e-02
8.390e+01 3.409e-02
8.400e+01 3.399e-02
8.410e+01 3.389e-02
8.420e+01 3.379e-02
8.430e+01 3.369e-02
8.440e+01 3.359e-02
8.450e+01 3.349e-02
8.460e+01 3.339e-02
8.470e+01 3.329e-02
8.480e+01 3.319e-02
8.490e+01 3.310e-02
8.500e+01 3.300e-02
8.510e+01 3.290e-02
8.520e+01 3.280e-02
8.530e+01 3.271e-02
8.540e+01 3.261e-02
8.550e+01 3.251e-02
8.560e+01 3.242e-02
8.570e+01 3.232e-02
8.580e+01 3.222e-02
8.590e+01 3.213e-02
8.600e+01 3.203e-02
8.610e+01 3.194e-02
8.620e+01 3.184e-02
8.630e+01 3.175e-02
8.640e+01 3.165e-02
8.650e+01 3.156e-02
8.660e+01 3.147e-02
8.670e+01 3.137e-02
8.680e+01 3.128e-02
8.690e+01 3.119e-02
8.700e+01 3.109e-02
8.710e+01 3.100e-02
8.720e+01 3.091e-02
8.730e+01 3.082e-02
8.740e+01 3.073e-02
8.750e+01 3.064e-02
8.760e+01 3.055e-02
8.770e+01 3.045e-02
8.780e+01 3.036e-02
8.790e+01 3.027e-02
8.800e+01 3.018e-02
8.810e+01 3.010e-02
8.820e+01 3.001e-02
8.830e+01 2.992e-02
8.840e+01 2.983e-02
8.850e+01 2.974e-02
8.860e+01 2.965e-02
8.870e+01 2.956e-02
8.880e+01 2.948e-02
8.890e+01 2.939e-02
8.900e+01 2.930e-02
8.910e+01 2.921e-02
8.920e+01 2.913e-02
8.930e+01 2.904e-02
8.940e+01 2.896e-02
8.950e+01 2.887e-02
8.960e+01 2.878e-02
8.970e+01 2.870e-02
8.980e+01 2.861e-02
8.990e+01 2.853e-02
9.000e+01 2.844e-02
9.010e+01 2.836e-02
9.020e+01 2.828e-02
9.030e+01 2.819e-02
9.040e+01 2.811e-02
9.050e+01 2.802e-02
9.060e+01 2.794e-02
9.070e+01 2.786e-02
9.080e+01 2.778e-02
9.090e+01 2.769e-02
9.100e+01 2.761e-02
9.110e+01 2.753e-02
9.120e+01 2.745e-02
9.130e+01 2.737e-02
9.140e+01 2.729e-02
9.150e+01 2.720e-02
9.160e+01 2.712e-02
9.170e+01 2.704e-02
9.180e+01 2.696e-02
9.190e+01 2.688e-02
9.200e+01 2.680e-02
9.210e+01 2.672e-02
9.220e+01 2.664e-02
9.230e+01 2.657e-02
9.240e+01 2.649e-02
9.250e+01 2.641e-02
9.260e+01 2.633e-02
9.270e+01 2.625e-02
9.280e+01 2.617e-02
9.290e+01 2.610e-02
9.300e+01 2.602e-02
9.310e+01 2.594e-02
9.320e+01 2.586e-02
9.330e+01 2.579e-02
9.340e+01 2.571e-02
9.350e+01 2.564e-02
9.360e+01 2.556e-02
9.370e+01 2.548e-02
9.380e+01 2.541e-02
9.390e+01 2.533e-02
9.400e+01 2.526e-02
9.410e+01 2.518e-02
9.420e+01 2.511e-02
9.430e+01 2.503e-02
9.440e+01 2.496e-02
9.450e+01 2.489e-02
9.460e+01 2.481e-02
9.470e+01 2.474e-02
9.480e+01 2.466e-02
9.490e+01 2.459e-02
9.500e+01 2.452e-02
9.510e+01 2.445e-02
9.520e+01 2.437e-02
9.530e+01 2.430e-02
9.540e+01 2.423e-02
9.550e+01 2.416e-02
9.560e+01 2.409e-02
9.570e+01 2.401e-02
9.580e+01 2.394e-02
9.590e+01 2.387e-02
9.600e+01 2.380e-02
9.610e+01 2.373e-02
9.620e+01 2.366e-02
9.630e+01 2.359e-02
9.640e+01 2.352e-02
9.650e+01 2.345e-02
9.660e+01 2.338e-02
9.670e+01 2.331e-02
9.680e+01 2.324e-02
9.690e+01 2.317e-02
9.700e+01 2.310e-02
9.710e+01 2.304e-02
9.720e+01 2.297e-02
9.730e+01 2.290e-02
9.740e+01 2.283e-02
9.750e+01 2.276e-02
9.760e+01 2.270e-02
9.770e+01 2.263e-02
9.780e+01 2.256e-02
9.790e+01 2.249e-02
9.800e+01 2.243e-02
9.810e+01 2.236e-02
9.820e+01 2.230e-02
9.830e+01 2.223e-02
9.840e+01 2.216e-02
9.850e+01 2.210e-02
9.860e+01 2.203e-02
9.870e+01 2.197e-02
9.880e+01 2.190e-02
9.890e+01 2.184e-02
9.900e+01 2.177e-02
9.910e+01 2.171e-02
9.920e+01 2.164e-02
9.930e+01 2.158e-02
9.940e+01 2.151e-02
9.950e+01 2.145e-02
9.960e+01 2.139e-02
9.970e+01 2.132e-02
