# Time (ps)      real(F_0)      im(F_0)
0.000e+00 1.000e+00 0.000e+00
1.000e-02 9.974e-01 0.000e+00
2.000e-02 9.936e-01 0.000e+00
3.000e-02 9.884e-01 0.000e+00
4.000e-02 9.821e-01 0.000e+00
5.000e-02 9.745e-01 0.000e+00
6.000e-02 9.658e-01 0.000e+00
7.000e-02 9.563e-01 0.000e+00
8.000e-02 9.462e-01 0.000e+00
9.000e-02 9.356e-01 0.000e+00
1.000e-01 9.249e-01 0.000e+00
1.100e-01 9.141e-01 0.000e+00
1.200e-01 9.033e-01 0.000e+00
1.300e-01 8.926e-01 0.000e+00
1.400e-01 8.820e-01 0.000e+00
1.500e-01 8.717e-01 0.000e+00
1.600e-01 8.615e-01 0.000e+00
1.700e-01 8.516e-01 0.000e+00
1.800e-01 8.419e-01 0.000e+00
1.900e-01 8.324e-01 0.000e+00
2.000e-01 8.231e-01 0.000e+00
2.100e-01 8.140e-01 0.000e+00
2.200e-01 8.049e-01 0.000e+00
2.300e-01 7.961e-01 0.000e+00
2.400e-01 7.873e-01 0.000e+00
2.500e-01 7.786e-01 0.000e+00
2.600e-01 7.701e-01 0.000e+00
2.700e-01 7.617e-01 0.000e+00
2.800e-01 7.534e-01 0.000e+00
2.900e-01 7.451e-01 0.000e+00
3.000e-01 7.368e-01 0.000e+00
3.100e-01 7.285e-01 0.000e+00
3.200e-01 7.203e-01 0.000e+00
3.300e-01 7.122e-01 0.000e+00
3.400e-01 7.041e-01 0.000e+00
3.500e-01 6.962e-01 0.000e+00
3.600e-01 6.885e-01 0.000e+00
3.700e-01 6.809e-01 0.000e+00
3.800e-01 6.734e-01 0.000e+00
3.900e-01 6.659e-01 0.000e+00
4.000e-01 6.586e-01 0.000e+00
4.100e-01 6.513e-01 0.000e+00
4.200e-01 6.441e-01 0.000e+00
4.300e-01 6.370e-01 0.000e+00
4.400e-01 6.300e-01 0.000e+00
4.500e-01 6.231e-01 0.000e+00
4.600e-01 6.163e-01 0.000e+00
4.700e-01 6.096e-01 0.000e+00
4.800e-01 6.031e-01 0.000e+00
4.900e-01 5.966e-01 0.000e+00
5.000e-01 5.903e-01 0.000e+00
5.100e-01 5.841e-01 0.000e+00
5.200e-01 5.780e-01 0.000e+00
5.300e-01 5.722e-01 0.000e+00
5.400e-01 5.665e-01 0.000e+00
5.500e-01 5.609e-01 0.000e+00
5.600e-01 5.555e-01 0.000e+00
5.700e-01 5.503e-01 0.000e+00
5.800e-01 5.451e-01 0.000e+00
5.900e-01 5.400e-01 0.000e+00
6.000e-01 5.350e-01 0.000e+00
6.100e-01 5.300e-01 0.000e+00
6.200e-01 5.252e-01 0.000e+00
6.300e-01 5.204e-01 0.000e+00
6.400e-01 5.156e-01 0.000e+00
6.500e-01 5.109e-01 0.000e+00
6.600e-01 5.062e-01 0.000e+00
6.700e-01 5.014e-01 0.000e+00
6.800e-01 4.965e-01 0.000e+00
6.900e-01 4.916e-01 0.000e+00
7.000e-01 4.867e-01 0.000e+00
7.100e-01 4.817e-01 0.000e+00
7.200e-01 4.767e-01 0.000e+00
7.300e-01 4.718e-01 0.000e+00
7.400e-01 4.669e-01 0.000e+00
7.500e-01 4.620e-01 0.000e+00
7.600e-01 4.573e-01 0.000e+00
7.700e-01 4.527e-01 0.000e+00
7.800e-01 4.483e-01 0.000e+00
7.900e-01 4.440e-01 0.000e+00
8.000e-01 4.398e-01 0.000e+00
8.100e-01 4.357e-01 0.000e+00
8.200e-01 4.317e-01 0.000e+00
8.300e-01 4.277e-01 0.000e+00
8.400e-01 4.238e-01 0.000e+00
8.500e-01 4.199e-01 0.000e+00
8.600e-01 4.160e-01 0.000e+00
8.700e-01 4.120e-01 0.000e+00
8.800e-01 4.079e-01 0.000e+00
8.900e-01 4.037e-01 0.000e+00
9.000e-01 3.994e-01 0.000e+00
9.100e-01 3.951e-01 0.000e+00
9.200e-01 3.906e-01 0.000e+00
9.300e-01 3.862e-01 0.000e+00
9.400e-01 3.817e-01 0.000e+00
9.500e-01 3.772e-01 0.000e+00
9.600e-01 3.727e-01 0.000e+00
9.700e-01 3.681e-01 0.000e+00
9.800e-01 3.635e-01 0.000e+00
9.900e-01 3.587e-01 0.000e+00
1.000e+00 3.539e-01 0.000e+00
1.010e+00 3.489e-01 0.000e+00
1.020e+00 3.439e-01 0.000e+00
1.030e+00 3.387e-01 0.000e+00
1.040e+00 3.335e-01 0.000e+00
1.050e+00 3.283e-01 0.000e+00
1.060e+00 3.231e-01 0.000e+00
1.070e+00 3.180e-01 0.000e+00
1.080e+00 3.130e-01 0.000e+00
1.090e+00 3.080e-01 0.000e+00
1.100e+00 3.031e-01 0.000e+00
1.110e+00 2.982e-01 0.000e+00
1.120e+00 2.934e-01 0.000e+00
1.130e+00 2.886e-01 0.000e+00
1.140e+00 2.840e-01 0.000e+00
1.150e+00 2.794e-01 0.000e+00
1.160e+00 2.749e-01 0.000e+00
1.170e+00 2.705e-01 0.000e+00
1.180e+00 2.662e-01 0.000e+00
1.190e+00 2.620e-01 0.000e+00
1.200e+00 2.580e-01 0.000e+00
1.210e+00 2.541e-01 0.000e+00
1.220e+00 2.502e-01 0.000e+00
1.230e+00 2.465e-01 0.000e+00
1.240e+00 2.429e-01 0.000e+00
1.250e+00 2.394e-01 0.000e+00
1.260e+00 2.360e-01 0.000e+00
1.270e+00 2.326e-01 0.000e+00
1.280e+00 2.293e-01 0.000e+00
1.290e+00 2.261e-01 0.000e+00
1.300e+00 2.230e-01 0.000e+00
1.310e+00 2.200e-01 0.000e+00
1.320e+00 2.171e-01 0.000e+00
1.330e+00 2.143e-01 0.000e+00
1.340e+00 2.115e-01 0.000e+00
1.350e+00 2.089e-01 0.000e+00
1.360e+00 2.062e-01 0.000e+00
1.370e+00 2.036e-01 0.000e+00
1.380e+00 2.010e-01 0.000e+00
1.390e+00 1.985e-01 0.000e+00
1.400e+00 1.961e-01 0.000e+00
1.410e+00 1.937e-01 0.000e+00
1.420e+00 1.915e-01 0.000e+00
1.430e+00 1.893e-01 0.000e+00
1.440e+00 1.872e-01 0.000e+00
1.450e+00 1.852e-01 0.000e+00
1.460e+00 1.833e-01 0.000e+00
1.470e+00 1.814e-01 0.000e+00
1.480e+00 1.796e-01 0.000e+00
1.490e+00 1.778e-01 0.000e+00
1.500e+00 1.760e-01 0.000e+00
1.510e+00 1.741e-01 0.000e+00
1.520e+00 1.723e-01 0.000e+00
1.530e+00 1.705e-01 0.000e+00
1.540e+00 1.687e-01 0.000e+00
1.550e+00 1.670e-01 0.000e+00
1.560e+00 1.653e-01 0.000e+00
1.570e+00 1.637e-01 0.000e+00
1.580e+00 1.621e-01 0.000e+00
1.590e+00 1.605e-01 0.000e+00
1.600e+00 1.589e-01 0.000e+00
1.610e+00 1.574e-01 0.000e+00
1.620e+00 1.558e-01 0.000e+00
1.630e+00 1.542e-01 0.000e+00
1.640e+00 1.526e-01 0.000e+00
1.650e+00 1.510e-01 0.000e+00
1.660e+00 1.494e-01 0.000e+00
1.670e+00 1.478e-01 0.000e+00
1.680e+00 1.463e-01 0.000e+00
1.690e+00 1.447e-01 0.000e+00
1.700e+00 1.431e-01 0.000e+00
1.710e+00 1.415e-01 0.000e+00
1.720e+00 1.398e-01 0.000e+00
1.730e+00 1.381e-01 0.000e+00
1.740e+00 1.363e-01 0.000e+00
1.750e+00 1.345e-01 0.000e+00
1.760e+00 1.326e-01 0.000e+00
1.770e+00 1.307e-01 0.000e+00
1.780e+00 1.288e-01 0.000e+00
1.790e+00 1.268e-01 0.000e+00
1.800e+00 1.248e-01 0.000e+00
1.810e+00 1.227e-01 0.000e+00
1.820e+00 1.207e-01 0.000e+00
1.830e+00 1.187e-01 0.000e+00
1.840e+00 1.167e-01 0.000e+00
1.850e+00 1.147e-01 0.000e+00
1.860e+00 1.128e-01 0.000e+00
1.870e+00 1.110e-01 0.000e+00
1.880e+00 1.093e-01 0.000e+00
1.890e+00 1.077e-01 0.000e+00
1.900e+00 1.062e-01 0.000e+00
1.910e+00 1.048e-01 0.000e+00
1.920e+00 1.036e-01 0.000e+00
1.930e+00 1.025e-01 0.000e+00
1.940e+00 1.015e-01 0.000e+00
1.950e+00 1.006e-01 0.000e+00
1.960e+00 9.981e-02 0.000e+00
1.970e+00 9.908e-02 0.000e+00
1.980e+00 9.841e-02 0.000e+00
1.990e+00 9.779e-02 0.000e+00
2.000e+00 9.722e-02 0.000e+00
2.010e+00 9.669e-02 0.000e+00
2.020e+00 9.617e-02 0.000e+00
2.030e+00 9.568e-02 0.000e+00
2.040e+00 9.518e-02 0.000e+00
2.050e+00 9.469e-02 0.000e+00
2.060e+00 9.420e-02 0.000e+00
2.070e+00 9.373e-02 0.000e+00
2.080e+00 9.329e-02 0.000e+00
2.090e+00 9.290e-02 0.000e+00
2.100e+00 9.258e-02 0.000e+00
2.110e+00 9.232e-02 0.000e+00
2.120e+00 9.211e-02 0.000e+00
2.130e+00 9.191e-02 0.000e+00
2.140e+00 9.170e-02 0.000e+00
2.150e+00 9.142e-02 0.000e+00
2.160e+00 9.105e-02 0.000e+00
2.170e+00 9.057e-02 0.000e+00
2.180e+00 8.999e-02 0.000e+00
2.190e+00 8.932e-02 0.000e+00
2.200e+00 8.858e-02 0.000e+00
2.210e+00 8.778e-02 0.000e+00
2.220e+00 8.693e-02 0.000e+00
2.230e+00 8.604e-02 0.000e+00
2.240e+00 8.513e-02 0.000e+00
2.250e+00 8.420e-02 0.000e+00
2.260e+00 8.327e-02 0.000e+00
2.270e+00 8.234e-02 0.000e+00
2.280e+00 8.142e-02 0.000e+00
2.290e+00 8.051e-02 0.000e+00
2.300e+00 7.964e-02 0.000e+00
2.310e+00 7.881e-02 0.000e+00
2.320e+00 7.804e-02 0.000e+00
2.330e+00 7.733e-02 0.000e+00
2.340e+00 7.671e-02 0.000e+00
2.350e+00 7.616e-02 0.000e+00
2.360e+00 7.569e-02 0.000e+00
2.370e+00 7.526e-02 0.000e+00
2.380e+00 7.487e-02 0.000e+00
2.390e+00 7.450e-02 0.000e+00
2.400e+00 7.412e-02 0.000e+00
2.410e+00 7.374e-02 0.000e+00
2.420e+00 7.334e-02 0.000e+00
2.430e+00 7.292e-02 0.000e+00
2.440e+00 7.249e-02 0.000e+00
2.450e+00 7.206e-02 0.000e+00
2.460e+00 7.162e-02 0.000e+00
2.470e+00 7.120e-02 0.000e+00
2.480e+00 7.080e-02 0.000e+00
2.490e+00 7.044e-02 0.000e+00
2.500e+00 7.010e-02 0.000e+00
2.510e+00 6.981e-02 0.000e+00
2.520e+00 6.955e-02 0.000e+00
2.530e+00 6.931e-02 0.000e+00
2.540e+00 6.908e-02 0.000e+00
2.550e+00 6.887e-02 0.000e+00
2.560e+00 6.865e-02 0.000e+00
2.570e+00 6.842e-02 0.000e+00
2.580e+00 6.819e-02 0.000e+00
2.590e+00 6.795e-02 0.000e+00
2.600e+00 6.772e-02 0.000e+00
2.610e+00 6.749e-02 0.000e+00
2.620e+00 6.727e-02 0.000e+00
2.630e+00 6.706e-02 0.000e+00
2.640e+00 6.687e-02 0.000e+00
2.650e+00 6.668e-02 0.000e+00
2.660e+00 6.650e-02 0.000e+00
2.670e+00 6.630e-02 0.000e+00
2.680e+00 6.606e-02 0.000e+00
2.690e+00 6.576e-02 0.000e+00
2.700e+00 6.540e-02 0.000e+00
2.710e+00 6.496e-02 0.000e+00
2.720e+00 6.448e-02 0.000e+00
2.730e+00 6.396e-02 0.000e+00
2.740e+00 6.343e-02 0.000e+00
2.750e+00 6.291e-02 0.000e+00
2.760e+00 6.242e-02 0.000e+00
2.770e+00 6.197e-02 0.000e+00
2.780e+00 6.157e-02 0.000e+00
2.790e+00 6.124e-02 0.000e+00
2.800e+00 6.101e-02 0.000e+00
2.810e+00 6.087e-02 0.000e+00
2.820e+00 6.085e-02 0.000e+00
2.830e+00 6.094e-02 0.000e+00
2.840e+00 6.116e-02 0.000e+00
2.850e+00 6.149e-02 0.000e+00
2.860e+00 6.192e-02 0.000e+00
2.870e+00 6.245e-02 0.000e+00
2.880e+00 6.303e-02 0.000e+00
2.890e+00 6.366e-02 0.000e+00
2.900e+00 6.431e-02 0.000e+00
2.910e+00 6.494e-02 0.000e+00
2.920e+00 6.553e-02 0.000e+00
2.930e+00 6.607e-02 0.000e+00
2.940e+00 6.652e-02 0.000e+00
2.950e+00 6.687e-02 0.000e+00
2.960e+00 6.711e-02 0.000e+00
2.970e+00 6.722e-02 0.000e+00
2.980e+00 6.717e-02 0.000e+00
2.990e+00 6.698e-02 0.000e+00
3.000e+00 6.664e-02 0.000e+00
3.010e+00 6.616e-02 0.000e+00
3.020e+00 6.557e-02 0.000e+00
3.030e+00 6.489e-02 0.000e+00
3.040e+00 6.417e-02 0.000e+00
3.050e+00 6.343e-02 0.000e+00
3.060e+00 6.270e-02 0.000e+00
3.070e+00 6.200e-02 0.000e+00
3.080e+00 6.133e-02 0.000e+00
3.090e+00 6.072e-02 0.000e+00
3.100e+00 6.016e-02 0.000e+00
3.110e+00 5.965e-02 0.000e+00
3.120e+00 5.919e-02 0.000e+00
3.130e+00 5.877e-02 0.000e+00
3.140e+00 5.838e-02 0.000e+00
3.150e+00 5.801e-02 0.000e+00
3.160e+00 5.766e-02 0.000e+00
3.170e+00 5.734e-02 0.000e+00
3.180e+00 5.706e-02 0.000e+00
3.190e+00 5.683e-02 0.000e+00
3.200e+00 5.666e-02 0.000e+00
3.210e+00 5.654e-02 0.000e+00
3.220e+00 5.647e-02 0.000e+00
3.230e+00 5.645e-02 0.000e+00
3.240e+00 5.646e-02 0.000e+00
3.250e+00 5.647e-02 0.000e+00
3.260e+00 5.643e-02 0.000e+00
3.270e+00 5.631e-02 0.000e+00
3.280e+00 5.612e-02 0.000e+00
3.290e+00 5.586e-02 0.000e+00
3.300e+00 5.555e-02 0.000e+00
3.310e+00 5.522e-02 0.000e+00
3.320e+00 5.489e-02 0.000e+00
3.330e+00 5.459e-02 0.000e+00
3.340e+00 5.431e-02 0.000e+00
3.350e+00 5.407e-02 0.000e+00
3.360e+00 5.385e-02 0.000e+00
3.370e+00 5.364e-02 0.000e+00
3.380e+00 5.342e-02 0.000e+00
3.390e+00 5.319e-02 0.000e+00
3.400e+00 5.293e-02 0.000e+00
3.410e+00 5.262e-02 0.000e+00
3.420e+00 5.225e-02 0.000e+00
3.430e+00 5.183e-02 0.000e+00
3.440e+00 5.135e-02 0.000e+00
3.450e+00 5.082e-02 0.000e+00
3.460e+00 5.026e-02 0.000e+00
3.470e+00 4.970e-02 0.000e+00
3.480e+00 4.915e-02 0.000e+00
3.490e+00 4.864e-02 0.000e+00
3.500e+00 4.819e-02 0.000e+00
3.510e+00 4.781e-02 0.000e+00
3.520e+00 4.752e-02 0.000e+00
3.530e+00 4.731e-02 0.000e+00
3.540e+00 4.719e-02 0.000e+00
3.550e+00 4.714e-02 0.000e+00
3.560e+00 4.718e-02 0.000e+00
3.570e+00 4.729e-02 0.000e+00
3.580e+00 4.744e-02 0.000e+00
3.590e+00 4.762e-02 0.000e+00
3.600e+00 4.779e-02 0.000e+00
3.610e+00 4.795e-02 0.000e+00
3.620e+00 4.808e-02 0.000e+00
3.630e+00 4.816e-02 0.000e+00
3.640e+00 4.819e-02 0.000e+00
3.650e+00 4.818e-02 0.000e+00
3.660e+00 4.813e-02 0.000e+00
3.670e+00 4.805e-02 0.000e+00
3.680e+00 4.793e-02 0.000e+00
3.690e+00 4.777e-02 0.000e+00
3.700e+00 4.757e-02 0.000e+00
3.710e+00 4.730e-02 0.000e+00
3.720e+00 4.697e-02 0.000e+00
3.730e+00 4.656e-02 0.000e+00
3.740e+00 4.609e-02 0.000e+00
3.750e+00 4.554e-02 0.000e+00
3.760e+00 4.493e-02 0.000e+00
3.770e+00 4.425e-02 0.000e+00
3.780e+00 4.351e-02 0.000e+00
3.790e+00 4.273e-02 0.000e+00
3.800e+00 4.191e-02 0.000e+00
3.810e+00 4.107e-02 0.000e+00
3.820e+00 4.022e-02 0.000e+00
3.830e+00 3.938e-02 0.000e+00
3.840e+00 3.855e-02 0.000e+00
3.850e+00 3.774e-02 0.000e+00
3.860e+00 3.695e-02 0.000e+00
3.870e+00 3.619e-02 0.000e+00
3.880e+00 3.546e-02 0.000e+00
3.890e+00 3.477e-02 0.000e+00
3.900e+00 3.411e-02 0.000e+00
3.910e+00 3.348e-02 0.000e+00
3.920e+00 3.289e-02 0.000e+00
3.930e+00 3.233e-02 0.000e+00
3.940e+00 3.179e-02 0.000e+00
3.950e+00 3.128e-02 0.000e+00
3.960e+00 3.079e-02 0.000e+00
3.970e+00 3.031e-02 0.000e+00
3.980e+00 2.986e-02 0.000e+00
3.990e+00 2.942e-02 0.000e+00
4.000e+00 2.900e-02 0.000e+00
4.010e+00 2.860e-02 0.000e+00
4.020e+00 2.822e-02 0.000e+00
4.030e+00 2.787e-02 0.000e+00
4.040e+00 2.753e-02 0.000e+00
4.050e+00 2.722e-02 0.000e+00
4.060e+00 2.693e-02 0.000e+00
4.070e+00 2.667e-02 0.000e+00
4.080e+00 2.647e-02 0.000e+00
4.090e+00 2.633e-02 0.000e+00
4.100e+00 2.625e-02 0.000e+00
4.110e+00 2.623e-02 0.000e+00
4.120e+00 2.625e-02 0.000e+00
4.130e+00 2.632e-02 0.000e+00
4.140e+00 2.641e-02 0.000e+00
4.150e+00 2.654e-02 0.000e+00
4.160e+00 2.670e-02 0.000e+00
4.170e+00 2.688e-02 0.000e+00
4.180e+00 2.709e-02 0.000e+00
4.190e+00 2.732e-02 0.000e+00
4.200e+00 2.755e-02 0.000e+00
4.210e+00 2.778e-02 0.000e+00
4.220e+00 2.800e-02 0.000e+00
4.230e+00 2.819e-02 0.000e+00
4.240e+00 2.834e-02 0.000e+00
4.250e+00 2.845e-02 0.000e+00
4.260e+00 2.851e-02 0.000e+00
4.270e+00 2.853e-02 0.000e+00
4.280e+00 2.849e-02 0.000e+00
4.290e+00 2.842e-02 0.000e+00
4.300e+00 2.830e-02 0.000e+00
4.310e+00 2.815e-02 0.000e+00
4.320e+00 2.795e-02 0.000e+00
4.330e+00 2.772e-02 0.000e+00
4.340e+00 2.743e-02 0.000e+00
4.350e+00 2.710e-02 0.000e+00
4.360e+00 2.671e-02 0.000e+00
4.370e+00 2.628e-02 0.000e+00
4.380e+00 2.582e-02 0.000e+00
4.390e+00 2.532e-02 0.000e+00
4.400e+00 2.480e-02 0.000e+00
4.410e+00 2.426e-02 0.000e+00
4.420e+00 2.370e-02 0.000e+00
4.430e+00 2.315e-02 0.000e+00
4.440e+00 2.260e-02 0.000e+00
4.450e+00 2.207e-02 0.000e+00
4.460e+00 2.156e-02 0.000e+00
4.470e+00 2.109e-02 0.000e+00
4.480e+00 2.066e-02 0.000e+00
4.490e+00 2.031e-02 0.000e+00
4.500e+00 2.004e-02 0.000e+00
4.510e+00 1.988e-02 0.000e+00
4.520e+00 1.982e-02 0.000e+00
4.530e+00 1.984e-02 0.000e+00
4.540e+00 1.993e-02 0.000e+00
4.550e+00 2.008e-02 0.000e+00
4.560e+00 2.027e-02 0.000e+00
4.570e+00 2.050e-02 0.000e+00
4.580e+00 2.076e-02 0.000e+00
4.590e+00 2.104e-02 0.000e+00
4.600e+00 2.135e-02 0.000e+00
4.610e+00 2.167e-02 0.000e+00
4.620e+00 2.200e-02 0.000e+00
4.630e+00 2.233e-02 0.000e+00
4.640e+00 2.266e-02 0.000e+00
4.650e+00 2.297e-02 0.000e+00
4.660e+00 2.326e-02 0.000e+00
4.670e+00 2.351e-02 0.000e+00
4.680e+00 2.371e-02 0.000e+00
4.690e+00 2.385e-02 0.000e+00
4.700e+00 2.393e-02 0.000e+00
4.710e+00 2.395e-02 0.000e+00
4.720e+00 2.393e-02 0.000e+00
4.730e+00 2.385e-02 0.000e+00
4.740e+00 2.374e-02 0.000e+00
4.750e+00 2.360e-02 0.000e+00
4.760e+00 2.342e-02 0.000e+00
4.770e+00 2.321e-02 0.000e+00
4.780e+00 2.297e-02 0.000e+00
4.790e+00 2.270e-02 0.000e+00
4.800e+00 2.240e-02 0.000e+00
4.810e+00 2.209e-02 0.000e+00
4.820e+00 2.176e-02 0.000e+00
4.830e+00 2.144e-02 0.000e+00
4.840e+00 2.113e-02 0.000e+00
4.850e+00 2.085e-02 0.000e+00
4.860e+00 2.061e-02 0.000e+00
4.870e+00 2.043e-02 0.000e+00
4.880e+00 2.031e-02 0.000e+00
4.890e+00 2.026e-02 0.000e+00
4.900e+00 2.027e-02 0.000e+00
4.910e+00 2.035e-02 0.000e+00
4.920e+00 2.047e-02 0.000e+00
4.930e+00 2.064e-02 0.000e+00
4.940e+00 2.084e-02 0.000e+00
4.950e+00 2.106e-02 0.000e+00
4.960e+00 2.129e-02 0.000e+00
4.970e+00 2.153e-02 0.000e+00
4.980e+00 2.179e-02 0.000e+00
4.990e+00 2.205e-02 0.000e+00
5.000e+00 2.233e-02 0.000e+00
5.010e+00 2.265e-02 0.000e+00
5.020e+00 2.300e-02 0.000e+00
5.030e+00 2.340e-02 0.000e+00
5.040e+00 2.388e-02 0.000e+00
5.050e+00 2.442e-02 0.000e+00
5.060e+00 2.502e-02 0.000e+00
5.070e+00 2.567e-02 0.000e+00
5.080e+00 2.636e-02 0.000e+00
5.090e+00 2.708e-02 0.000e+00
5.100e+00 2.783e-02 0.000e+00
5.110e+00 2.860e-02 0.000e+00
5.120e+00 2.940e-02 0.000e+00
5.130e+00 3.023e-02 0.000e+00
5.140e+00 3.110e-02 0.000e+00
5.150e+00 3.199e-02 0.000e+00
5.160e+00 3.291e-02 0.000e+00
5.170e+00 3.382e-02 0.000e+00
5.180e+00 3.471e-02 0.000e+00
5.190e+00 3.555e-02 0.000e+00
5.200e+00 3.630e-02 0.000e+00
5.210e+00 3.693e-02 0.000e+00
5.220e+00 3.741e-02 0.000e+00
5.230e+00 3.772e-02 0.000e+00
5.240e+00 3.787e-02 0.000e+00
5.250e+00 3.790e-02 0.000e+00
5.260e+00 3.783e-02 0.000e+00
5.270e+00 3.770e-02 0.000e+00
5.280e+00 3.753e-02 0.000e+00
5.290e+00 3.734e-02 0.000e+00
5.300e+00 3.714e-02 0.000e+00
5.310e+00 3.696e-02 0.000e+00
5.320e+00 3.680e-02 0.000e+00
5.330e+00 3.668e-02 0.000e+00
5.340e+00 3.662e-02 0.000e+00
5.350e+00 3.661e-02 0.000e+00
5.360e+00 3.666e-02 0.000e+00
5.370e+00 3.674e-02 0.000e+00
5.380e+00 3.683e-02 0.000e+00
5.390e+00 3.692e-02 0.000e+00
5.400e+00 3.698e-02 0.000e+00
5.410e+00 3.700e-02 0.000e+00
5.420e+00 3.697e-02 0.000e+00
5.430e+00 3.691e-02 0.000e+00
5.440e+00 3.681e-02 0.000e+00
5.450e+00 3.670e-02 0.000e+00
5.460e+00 3.657e-02 0.000e+00
5.470e+00 3.645e-02 0.000e+00
5.480e+00 3.634e-02 0.000e+00
5.490e+00 3.623e-02 0.000e+00
5.500e+00 3.614e-02 0.000e+00
5.510e+00 3.605e-02 0.000e+00
5.520e+00 3.599e-02 0.000e+00
5.530e+00 3.595e-02 0.000e+00
5.540e+00 3.594e-02 0.000e+00
5.550e+00 3.595e-02 0.000e+00
5.560e+00 3.600e-02 0.000e+00
5.570e+00 3.607e-02 0.000e+00
5.580e+00 3.618e-02 0.000e+00
5.590e+00 3.631e-02 0.000e+00
5.600e+00 3.648e-02 0.000e+00
5.610e+00 3.668e-02 0.000e+00
5.620e+00 3.690e-02 0.000e+00
5.630e+00 3.712e-02 0.000e+00
5.640e+00 3.733e-02 0.000e+00
5.650e+00 3.750e-02 0.000e+00
5.660e+00 3.761e-02 0.000e+00
5.670e+00 3.765e-02 0.000e+00
5.680e+00 3.760e-02 0.000e+00
5.690e+00 3.746e-02 0.000e+00
5.700e+00 3.724e-02 0.000e+00
5.710e+00 3.694e-02 0.000e+00
5.720e+00 3.659e-02 0.000e+00
5.730e+00 3.618e-02 0.000e+00
5.740e+00 3.573e-02 0.000e+00
5.750e+00 3.526e-02 0.000e+00
5.760e+00 3.475e-02 0.000e+00
5.770e+00 3.425e-02 0.000e+00
5.780e+00 3.376e-02 0.000e+00
5.790e+00 3.330e-02 0.000e+00
5.800e+00 3.289e-02 0.000e+00
5.810e+00 3.253e-02 0.000e+00
5.820e+00 3.222e-02 0.000e+00
5.830e+00 3.194e-02 0.000e+00
5.840e+00 3.168e-02 0.000e+00
5.850e+00 3.143e-02 0.000e+00
5.860e+00 3.118e-02 0.000e+00
5.870e+00 3.093e-02 0.000e+00
5.880e+00 3.066e-02 0.000e+00
5.890e+00 3.038e-02 0.000e+00
5.900e+00 3.008e-02 0.000e+00
5.910e+00 2.974e-02 0.000e+00
5.920e+00 2.935e-02 0.000e+00
5.930e+00 2.893e-02 0.000e+00
5.940e+00 2.847e-02 0.000e+00
5.950e+00 2.802e-02 0.000e+00
5.960e+00 2.764e-02 0.000e+00
5.970e+00 2.738e-02 0.000e+00
5.980e+00 2.728e-02 0.000e+00
5.990e+00 2.733e-02 0.000e+00
6.000e+00 2.748e-02 0.000e+00
6.010e+00 2.768e-02 0.000e+00
6.020e+00 2.787e-02 0.000e+00
6.030e+00 2.804e-02 0.000e+00
6.040e+00 2.816e-02 0.000e+00
6.050e+00 2.825e-02 0.000e+00
6.060e+00 2.831e-02 0.000e+00
6.070e+00 2.835e-02 0.000e+00
6.080e+00 2.836e-02 0.000e+00
6.090e+00 2.836e-02 0.000e+00
6.100e+00 2.833e-02 0.000e+00
6.110e+00 2.829e-02 0.000e+00
6.120e+00 2.825e-02 0.000e+00
6.130e+00 2.820e-02 0.000e+00
6.140e+00 2.816e-02 0.000e+00
6.150e+00 2.813e-02 0.000e+00
6.160e+00 2.810e-02 0.000e+00
6.170e+00 2.810e-02 0.000e+00
6.180e+00 2.811e-02 0.000e+00
6.190e+00 2.816e-02 0.000e+00
6.200e+00 2.825e-02 0.000e+00
6.210e+00 2.837e-02 0.000e+00
6.220e+00 2.853e-02 0.000e+00
6.230e+00 2.870e-02 0.000e+00
6.240e+00 2.887e-02 0.000e+00
6.250e+00 2.898e-02 0.000e+00
6.260e+00 2.898e-02 0.000e+00
6.270e+00 2.884e-02 0.000e+00
6.280e+00 2.855e-02 0.000e+00
6.290e+00 2.811e-02 0.000e+00
6.300e+00 2.758e-02 0.000e+00
6.310e+00 2.699e-02 0.000e+00
6.320e+00 2.641e-02 0.000e+00
6.330e+00 2.586e-02 0.000e+00
6.340e+00 2.536e-02 0.000e+00
6.350e+00 2.492e-02 0.000e+00
6.360e+00 2.454e-02 0.000e+00
6.370e+00 2.423e-02 0.000e+00
6.380e+00 2.396e-02 0.000e+00
6.390e+00 2.374e-02 0.000e+00
6.400e+00 2.354e-02 0.000e+00
6.410e+00 2.335e-02 0.000e+00
6.420e+00 2.316e-02 0.000e+00
6.430e+00 2.298e-02 0.000e+00
6.440e+00 2.279e-02 0.000e+00
6.450e+00 2.259e-02 0.000e+00
6.460e+00 2.238e-02 0.000e+00
6.470e+00 2.217e-02 0.000e+00
6.480e+00 2.194e-02 0.000e+00
6.490e+00 2.169e-02 0.000e+00
6.500e+00 2.145e-02 0.000e+00
6.510e+00 2.122e-02 0.000e+00
6.520e+00 2.101e-02 0.000e+00
6.530e+00 2.086e-02 0.000e+00
6.540e+00 2.077e-02 0.000e+00
6.550e+00 2.077e-02 0.000e+00
6.560e+00 2.086e-02 0.000e+00
6.570e+00 2.104e-02 0.000e+00
6.580e+00 2.131e-02 0.000e+00
6.590e+00 2.164e-02 0.000e+00
6.600e+00 2.201e-02 0.000e+00
6.610e+00 2.241e-02 0.000e+00
6.620e+00 2.281e-02 0.000e+00
6.630e+00 2.318e-02 0.000e+00
6.640e+00 2.352e-02 0.000e+00
