# Time (ps)      real(F_1)      im(F_1)
0.000e+00 1.000e+00 0.000e+00
1.000e-02 9.990e-01 1.289e-04
2.000e-02 9.968e-01 3.292e-04
3.000e-02 9.934e-01 5.929e-04
4.000e-02 9.888e-01 9.020e-04
5.000e-02 9.831e-01 1.226e-03
6.000e-02 9.762e-01 1.529e-03
7.000e-02 9.683e-01 1.785e-03
8.000e-02 9.594e-01 1.979e-03
9.000e-02 9.497e-01 2.110e-03
1.000e-01 9.394e-01 2.177e-03
1.100e-01 9.287e-01 2.176e-03
1.200e-01 9.176e-01 2.104e-03
1.300e-01 9.063e-01 1.960e-03
1.400e-01 8.950e-01 1.749e-03
1.500e-01 8.836e-01 1.481e-03
1.600e-01 8.722e-01 1.171e-03
1.700e-01 8.607e-01 8.426e-04
1.800e-01 8.493e-01 5.197e-04
1.900e-01 8.379e-01 2.275e-04
2.000e-01 8.266e-01 -1.365e-05
2.100e-01 8.153e-01 -1.909e-04
2.200e-01 8.041e-01 -3.000e-04
2.300e-01 7.929e-01 -3.436e-04
2.400e-01 7.818e-01 -3.283e-04
2.500e-01 7.709e-01 -2.615e-04
2.600e-01 7.601e-01 -1.514e-04
2.700e-01 7.495e-01 -8.437e-06
2.800e-01 7.391e-01 1.519e-04
2.900e-01 7.289e-01 3.078e-04
3.000e-01 7.190e-01 4.361e-04
3.100e-01 7.093e-01 5.217e-04
3.200e-01 6.999e-01 5.635e-04
3.300e-01 6.908e-01 5.718e-04
3.400e-01 6.820e-01 5.606e-04
3.500e-01 6.734e-01 5.402e-04
3.600e-01 6.651e-01 5.150e-04
3.700e-01 6.570e-01 4.850e-04
3.800e-01 6.491e-01 4.478e-04
3.900e-01 6.414e-01 4.015e-04
4.000e-01 6.338e-01 3.468e-04
4.100e-01 6.263e-01 2.881e-04
4.200e-01 6.189e-01 2.339e-04
4.300e-01 6.116e-01 1.957e-04
4.400e-01 6.043e-01 1.865e-04
4.500e-01 5.972e-01 2.181e-04
4.600e-01 5.901e-01 2.979e-04
4.700e-01 5.832e-01 4.258e-04
4.800e-01 5.763e-01 5.927e-04
4.900e-01 5.696e-01 7.814e-04
5.000e-01 5.629e-01 9.712e-04
5.100e-01 5.563e-01 1.143e-03
5.200e-01 5.497e-01 1.284e-03
5.300e-01 5.431e-01 1.391e-03
5.400e-01 5.366e-01 1.471e-03
5.500e-01 5.301e-01 1.530e-03
5.600e-01 5.236e-01 1.578e-03
5.700e-01 5.171e-01 1.616e-03
5.800e-01 5.107e-01 1.643e-03
5.900e-01 5.043e-01 1.654e-03
6.000e-01 4.980e-01 1.648e-03
6.100e-01 4.918e-01 1.623e-03
6.200e-01 4.857e-01 1.587e-03
6.300e-01 4.799e-01 1.548e-03
6.400e-01 4.741e-01 1.517e-03
6.500e-01 4.686e-01 1.505e-03
6.600e-01 4.632e-01 1.512e-03
6.700e-01 4.579e-01 1.533e-03
6.800e-01 4.527e-01 1.550e-03
6.900e-01 4.476e-01 1.547e-03
7.000e-01 4.426e-01 1.507e-03
7.100e-01 4.377e-01 1.422e-03
7.200e-01 4.328e-01 1.290e-03
7.300e-01 4.279e-01 1.117e-03
7.400e-01 4.231e-01 9.122e-04
7.500e-01 4.183e-01 6.899e-04
7.600e-01 4.136e-01 4.611e-04
7.700e-01 4.089e-01 2.321e-04
7.800e-01 4.042e-01 1.868e-06
7.900e-01 3.995e-01 -2.365e-04
8.000e-01 3.948e-01 -4.908e-04
8.100e-01 3.900e-01 -7.653e-04
8.200e-01 3.853e-01 -1.061e-03
8.300e-01 3.805e-01 -1.376e-03
8.400e-01 3.758e-01 -1.708e-03
8.500e-01 3.711e-01 -2.058e-03
8.600e-01 3.664e-01 -2.425e-03
8.700e-01 3.618e-01 -2.810e-03
8.800e-01 3.573e-01 -3.206e-03
8.900e-01 3.529e-01 -3.605e-03
9.000e-01 3.487e-01 -3.991e-03
9.100e-01 3.447e-01 -4.347e-03
9.200e-01 3.409e-01 -4.659e-03
9.300e-01 3.373e-01 -4.913e-03
9.400e-01 3.339e-01 -5.102e-03
9.500e-01 3.307e-01 -5.221e-03
9.600e-01 3.276e-01 -5.271e-03
9.700e-01 3.246e-01 -5.257e-03
9.800e-01 3.216e-01 -5.188e-03
9.900e-01 3.187e-01 -5.080e-03
1.000e+00 3.157e-01 -4.950e-03
1.010e+00 3.127e-01 -4.814e-03
1.020e+00 3.096e-01 -4.681e-03
1.030e+00 3.064e-01 -4.543e-03
1.040e+00 3.032e-01 -4.382e-03
1.050e+00 3.000e-01 -4.168e-03
1.060e+00 2.968e-01 -3.876e-03
1.070e+00 2.935e-01 -3.487e-03
1.080e+00 2.903e-01 -2.991e-03
1.090e+00 2.870e-01 -2.392e-03
1.100e+00 2.837e-01 -1.704e-03
1.110e+00 2.804e-01 -9.483e-04
1.120e+00 2.771e-01 -1.523e-04
1.130e+00 2.738e-01 6.582e-04
1.140e+00 2.705e-01 1.461e-03
1.150e+00 2.672e-01 2.238e-03
1.160e+00 2.640e-01 2.974e-03
1.170e+00 2.608e-01 3.655e-03
1.180e+00 2.577e-01 4.272e-03
1.190e+00 2.546e-01 4.813e-03
1.200e+00 2.517e-01 5.273e-03
1.210e+00 2.489e-01 5.645e-03
1.220e+00 2.462e-01 5.927e-03
1.230e+00 2.435e-01 6.118e-03
1.240e+00 2.410e-01 6.221e-03
1.250e+00 2.386e-01 6.244e-03
1.260e+00 2.364e-01 6.199e-03
1.270e+00 2.342e-01 6.100e-03
1.280e+00 2.321e-01 5.962e-03
1.290e+00 2.302e-01 5.801e-03
1.300e+00 2.283e-01 5.628e-03
1.310e+00 2.266e-01 5.451e-03
1.320e+00 2.249e-01 5.275e-03
1.330e+00 2.234e-01 5.103e-03
1.340e+00 2.219e-01 4.937e-03
1.350e+00 2.205e-01 4.787e-03
1.360e+00 2.191e-01 4.665e-03
1.370e+00 2.178e-01 4.583e-03
1.380e+00 2.164e-01 4.551e-03
1.390e+00 2.151e-01 4.574e-03
1.400e+00 2.137e-01 4.647e-03
1.410e+00 2.123e-01 4.761e-03
1.420e+00 2.109e-01 4.896e-03
1.430e+00 2.095e-01 5.036e-03
1.440e+00 2.081e-01 5.171e-03
1.450e+00 2.067e-01 5.302e-03
1.460e+00 2.052e-01 5.440e-03
1.470e+00 2.038e-01 5.594e-03
1.480e+00 2.024e-01 5.769e-03
1.490e+00 2.010e-01 5.959e-03
1.500e+00 1.996e-01 6.151e-03
1.510e+00 1.981e-01 6.332e-03
1.520e+00 1.966e-01 6.490e-03
1.530e+00 1.951e-01 6.621e-03
1.540e+00 1.935e-01 6.725e-03
1.550e+00 1.919e-01 6.807e-03
1.560e+00 1.903e-01 6.875e-03
1.570e+00 1.886e-01 6.935e-03
1.580e+00 1.869e-01 6.993e-03
1.590e+00 1.852e-01 7.050e-03
1.600e+00 1.835e-01 7.108e-03
1.610e+00 1.817e-01 7.161e-03
1.620e+00 1.800e-01 7.202e-03
1.630e+00 1.781e-01 7.216e-03
1.640e+00 1.763e-01 7.193e-03
1.650e+00 1.745e-01 7.118e-03
1.660e+00 1.727e-01 6.983e-03
1.670e+00 1.709e-01 6.782e-03
1.680e+00 1.691e-01 6.511e-03
1.690e+00 1.674e-01 6.178e-03
1.700e+00 1.657e-01 5.796e-03
1.710e+00 1.641e-01 5.383e-03
1.720e+00 1.626e-01 4.957e-03
1.730e+00 1.612e-01 4.532e-03
1.740e+00 1.599e-01 4.116e-03
1.750e+00 1.586e-01 3.714e-03
1.760e+00 1.574e-01 3.323e-03
1.770e+00 1.563e-01 2.941e-03
1.780e+00 1.553e-01 2.564e-03
1.790e+00 1.543e-01 2.186e-03
1.800e+00 1.533e-01 1.803e-03
1.810e+00 1.523e-01 1.407e-03
1.820e+00 1.513e-01 9.952e-04
1.830e+00 1.503e-01 5.642e-04
1.840e+00 1.493e-01 1.132e-04
1.850e+00 1.483e-01 -3.559e-04
1.860e+00 1.472e-01 -8.389e-04
1.870e+00 1.460e-01 -1.330e-03
1.880e+00 1.448e-01 -1.824e-03
1.890e+00 1.435e-01 -2.317e-03
1.900e+00 1.421e-01 -2.805e-03
1.910e+00 1.407e-01 -3.280e-03
1.920e+00 1.393e-01 -3.735e-03
1.930e+00 1.378e-01 -4.161e-03
1.940e+00 1.364e-01 -4.548e-03
1.950e+00 1.349e-01 -4.895e-03
1.960e+00 1.335e-01 -5.201e-03
1.970e+00 1.321e-01 -5.471e-03
1.980e+00 1.308e-01 -5.708e-03
1.990e+00 1.295e-01 -5.918e-03
2.000e+00 1.283e-01 -6.103e-03
2.010e+00 1.272e-01 -6.265e-03
2.020e+00 1.261e-01 -6.407e-03
2.030e+00 1.252e-01 -6.534e-03
2.040e+00 1.243e-01 -6.654e-03
2.050e+00 1.235e-01 -6.773e-03
2.060e+00 1.228e-01 -6.893e-03
2.070e+00 1.221e-01 -7.014e-03
2.080e+00 1.215e-01 -7.133e-03
2.090e+00 1.208e-01 -7.243e-03
2.100e+00 1.202e-01 -7.343e-03
2.110e+00 1.196e-01 -7.430e-03
2.120e+00 1.190e-01 -7.507e-03
2.130e+00 1.184e-01 -7.573e-03
2.140e+00 1.179e-01 -7.627e-03
2.150e+00 1.173e-01 -7.667e-03
2.160e+00 1.167e-01 -7.690e-03
2.170e+00 1.162e-01 -7.693e-03
2.180e+00 1.156e-01 -7.673e-03
2.190e+00 1.151e-01 -7.629e-03
2.200e+00 1.145e-01 -7.561e-03
2.210e+00 1.140e-01 -7.473e-03
2.220e+00 1.135e-01 -7.370e-03
2.230e+00 1.129e-01 -7.256e-03
2.240e+00 1.124e-01 -7.137e-03
2.250e+00 1.120e-01 -7.015e-03
2.260e+00 1.115e-01 -6.893e-03
2.270e+00 1.111e-01 -6.772e-03
2.280e+00 1.107e-01 -6.655e-03
2.290e+00 1.104e-01 -6.549e-03
2.300e+00 1.100e-01 -6.458e-03
2.310e+00 1.097e-01 -6.390e-03
2.320e+00 1.094e-01 -6.351e-03
2.330e+00 1.091e-01 -6.344e-03
2.340e+00 1.088e-01 -6.365e-03
2.350e+00 1.085e-01 -6.407e-03
2.360e+00 1.082e-01 -6.459e-03
2.370e+00 1.080e-01 -6.508e-03
2.380e+00 1.078e-01 -6.543e-03
2.390e+00 1.075e-01 -6.554e-03
2.400e+00 1.073e-01 -6.535e-03
2.410e+00 1.071e-01 -6.484e-03
2.420e+00 1.068e-01 -6.403e-03
2.430e+00 1.065e-01 -6.298e-03
2.440e+00 1.061e-01 -6.177e-03
2.450e+00 1.056e-01 -6.047e-03
2.460e+00 1.049e-01 -5.911e-03
2.470e+00 1.042e-01 -5.771e-03
2.480e+00 1.034e-01 -5.625e-03
2.490e+00 1.025e-01 -5.472e-03
2.500e+00 1.014e-01 -5.307e-03
2.510e+00 1.003e-01 -5.128e-03
2.520e+00 9.919e-02 -4.932e-03
2.530e+00 9.803e-02 -4.716e-03
2.540e+00 9.686e-02 -4.476e-03
2.550e+00 9.570e-02 -4.208e-03
2.560e+00 9.457e-02 -3.908e-03
2.570e+00 9.347e-02 -3.572e-03
2.580e+00 9.243e-02 -3.200e-03
2.590e+00 9.144e-02 -2.796e-03
2.600e+00 9.051e-02 -2.366e-03
2.610e+00 8.964e-02 -1.919e-03
2.620e+00 8.883e-02 -1.465e-03
2.630e+00 8.808e-02 -1.009e-03
2.640e+00 8.739e-02 -5.503e-04
2.650e+00 8.677e-02 -8.098e-05
2.660e+00 8.623e-02 4.199e-04
2.670e+00 8.580e-02 9.783e-04
2.680e+00 8.549e-02 1.606e-03
2.690e+00 8.532e-02 2.279e-03
2.700e+00 8.526e-02 2.949e-03
2.710e+00 8.533e-02 3.570e-03
2.720e+00 8.549e-02 4.112e-03
2.730e+00 8.573e-02 4.562e-03
2.740e+00 8.603e-02 4.922e-03
2.750e+00 8.638e-02 5.197e-03
2.760e+00 8.674e-02 5.398e-03
2.770e+00 8.709e-02 5.539e-03
2.780e+00 8.740e-02 5.630e-03
2.790e+00 8.765e-02 5.681e-03
2.800e+00 8.781e-02 5.702e-03
2.810e+00 8.786e-02 5.705e-03
2.820e+00 8.778e-02 5.703e-03
2.830e+00 8.757e-02 5.709e-03
2.840e+00 8.721e-02 5.735e-03
2.850e+00 8.672e-02 5.788e-03
2.860e+00 8.610e-02 5.869e-03
2.870e+00 8.538e-02 5.973e-03
2.880e+00 8.456e-02 6.093e-03
2.890e+00 8.366e-02 6.220e-03
2.900e+00 8.268e-02 6.348e-03
2.910e+00 8.163e-02 6.476e-03
2.920e+00 8.051e-02 6.605e-03
2.930e+00 7.933e-02 6.740e-03
2.940e+00 7.809e-02 6.884e-03
2.950e+00 7.684e-02 7.044e-03
2.960e+00 7.559e-02 7.227e-03
2.970e+00 7.437e-02 7.439e-03
2.980e+00 7.320e-02 7.687e-03
2.990e+00 7.210e-02 7.968e-03
3.000e+00 7.107e-02 8.278e-03
3.010e+00 7.013e-02 8.609e-03
3.020e+00 6.928e-02 8.956e-03
3.030e+00 6.852e-02 9.314e-03
3.040e+00 6.786e-02 9.683e-03
3.050e+00 6.729e-02 1.007e-02
3.060e+00 6.680e-02 1.046e-02
3.070e+00 6.639e-02 1.088e-02
3.080e+00 6.605e-02 1.130e-02
3.090e+00 6.578e-02 1.173e-02
3.100e+00 6.557e-02 1.214e-02
3.110e+00 6.542e-02 1.252e-02
3.120e+00 6.533e-02 1.286e-02
3.130e+00 6.527e-02 1.318e-02
3.140e+00 6.523e-02 1.346e-02
3.150e+00 6.518e-02 1.374e-02
3.160e+00 6.509e-02 1.403e-02
3.170e+00 6.496e-02 1.431e-02
3.180e+00 6.477e-02 1.458e-02
3.190e+00 6.451e-02 1.483e-02
3.200e+00 6.417e-02 1.505e-02
3.210e+00 6.377e-02 1.526e-02
3.220e+00 6.330e-02 1.544e-02
3.230e+00 6.279e-02 1.561e-02
3.240e+00 6.225e-02 1.574e-02
3.250e+00 6.168e-02 1.585e-02
3.260e+00 6.108e-02 1.591e-02
3.270e+00 6.045e-02 1.591e-02
3.280e+00 5.981e-02 1.584e-02
3.290e+00 5.917e-02 1.569e-02
3.300e+00 5.855e-02 1.545e-02
3.310e+00 5.799e-02 1.511e-02
3.320e+00 5.749e-02 1.470e-02
3.330e+00 5.705e-02 1.423e-02
3.340e+00 5.667e-02 1.374e-02
3.350e+00 5.635e-02 1.323e-02
3.360e+00 5.607e-02 1.271e-02
3.370e+00 5.582e-02 1.221e-02
3.380e+00 5.560e-02 1.170e-02
3.390e+00 5.539e-02 1.121e-02
3.400e+00 5.520e-02 1.074e-02
3.410e+00 5.500e-02 1.029e-02
3.420e+00 5.480e-02 9.879e-03
3.430e+00 5.457e-02 9.502e-03
3.440e+00 5.432e-02 9.163e-03
3.450e+00 5.403e-02 8.862e-03
3.460e+00 5.371e-02 8.599e-03
3.470e+00 5.336e-02 8.373e-03
3.480e+00 5.299e-02 8.182e-03
3.490e+00 5.261e-02 8.024e-03
3.500e+00 5.222e-02 7.899e-03
3.510e+00 5.184e-02 7.803e-03
3.520e+00 5.148e-02 7.733e-03
3.530e+00 5.114e-02 7.682e-03
3.540e+00 5.082e-02 7.641e-03
3.550e+00 5.053e-02 7.598e-03
3.560e+00 5.025e-02 7.541e-03
3.570e+00 4.998e-02 7.459e-03
3.580e+00 4.971e-02 7.341e-03
3.590e+00 4.943e-02 7.182e-03
3.600e+00 4.915e-02 6.981e-03
3.610e+00 4.886e-02 6.741e-03
3.620e+00 4.857e-02 6.474e-03
3.630e+00 4.828e-02 6.195e-03
3.640e+00 4.801e-02 5.921e-03
3.650e+00 4.776e-02 5.665e-03
3.660e+00 4.755e-02 5.437e-03
3.670e+00 4.736e-02 5.237e-03
3.680e+00 4.722e-02 5.060e-03
3.690e+00 4.711e-02 4.899e-03
3.700e+00 4.704e-02 4.744e-03
3.710e+00 4.702e-02 4.584e-03
3.720e+00 4.706e-02 4.413e-03
3.730e+00 4.714e-02 4.229e-03
3.740e+00 4.728e-02 4.032e-03
3.750e+00 4.746e-02 3.824e-03
3.760e+00 4.766e-02 3.608e-03
3.770e+00 4.789e-02 3.387e-03
3.780e+00 4.812e-02 3.161e-03
3.790e+00 4.833e-02 2.931e-03
3.800e+00 4.853e-02 2.697e-03
3.810e+00 4.870e-02 2.460e-03
3.820e+00 4.885e-02 2.221e-03
3.830e+00 4.896e-02 1.987e-03
3.840e+00 4.904e-02 1.763e-03
3.850e+00 4.908e-02 1.555e-03
3.860e+00 4.907e-02 1.365e-03
3.870e+00 4.902e-02 1.192e-03
3.880e+00 4.893e-02 1.033e-03
3.890e+00 4.880e-02 8.835e-04
3.900e+00 4.864e-02 7.405e-04
3.910e+00 4.846e-02 6.036e-04
3.920e+00 4.826e-02 4.736e-04
3.930e+00 4.805e-02 3.519e-04
3.940e+00 4.782e-02 2.388e-04
3.950e+00 4.758e-02 1.331e-04
3.960e+00 4.733e-02 3.201e-05
3.970e+00 4.709e-02 -6.882e-05
3.980e+00 4.685e-02 -1.754e-04
3.990e+00 4.662e-02 -2.955e-04
4.000e+00 4.642e-02 -4.369e-04
4.010e+00 4.624e-02 -6.041e-04
4.020e+00 4.609e-02 -7.935e-04
4.030e+00 4.596e-02 -9.935e-04
4.040e+00 4.586e-02 -1.189e-03
4.050e+00 4.577e-02 -1.365e-03
4.060e+00 4.571e-02 -1.512e-03
4.070e+00 4.567e-02 -1.623e-03
4.080e+00 4.566e-02 -1.700e-03
4.090e+00 4.568e-02 -1.746e-03
4.100e+00 4.572e-02 -1.771e-03
4.110e+00 4.577e-02 -1.784e-03
4.120e+00 4.582e-02 -1.789e-03
4.130e+00 4.586e-02 -1.787e-03
4.140e+00 4.588e-02 -1.774e-03
4.150e+00 4.586e-02 -1.748e-03
4.160e+00 4.579e-02 -1.710e-03
4.170e+00 4.569e-02 -1.668e-03
4.180e+00 4.558e-02 -1.630e-03
4.190e+00 4.546e-02 -1.599e-03
4.200e+00 4.535e-02 -1.573e-03
4.210e+00 4.527e-02 -1.548e-03
4.220e+00 4.522e-02 -1.522e-03
4.230e+00 4.522e-02 -1.494e-03
4.240e+00 4.526e-02 -1.466e-03
4.250e+00 4.535e-02 -1.442e-03
4.260e+00 4.548e-02 -1.423e-03
4.270e+00 4.566e-02 -1.413e-03
4.280e+00 4.589e-02 -1.413e-03
4.290e+00 4.617e-02 -1.425e-03
4.300e+00 4.648e-02 -1.449e-03
4.310e+00 4.683e-02 -1.484e-03
4.320e+00 4.721e-02 -1.533e-03
4.330e+00 4.762e-02 -1.598e-03
4.340e+00 4.805e-02 -1.679e-03
4.350e+00 4.850e-02 -1.776e-03
4.360e+00 4.896e-02 -1.885e-03
4.370e+00 4.943e-02 -1.999e-03
4.380e+00 4.990e-02 -2.109e-03
4.390e+00 5.037e-02 -2.210e-03
4.400e+00 5.083e-02 -2.297e-03
4.410e+00 5.127e-02 -2.370e-03
4.420e+00 5.167e-02 -2.435e-03
4.430e+00 5.204e-02 -2.499e-03
4.440e+00 5.237e-02 -2.571e-03
4.450e+00 5.265e-02 -2.658e-03
4.460e+00 5.291e-02 -2.766e-03
4.470e+00 5.313e-02 -2.895e-03
4.480e+00 5.333e-02 -3.040e-03
4.490e+00 5.350e-02 -3.193e-03
4.500e+00 5.365e-02 -3.342e-03
4.510e+00 5.377e-02 -3.476e-03
4.520e+00 5.386e-02 -3.583e-03
4.530e+00 5.392e-02 -3.660e-03
4.540e+00 5.396e-02 -3.713e-03
4.550e+00 5.400e-02 -3.752e-03
4.560e+00 5.404e-02 -3.789e-03
4.570e+00 5.409e-02 -3.830e-03
4.580e+00 5.415e-02 -3.874e-03
4.590e+00 5.422e-02 -3.919e-03
4.600e+00 5.430e-02 -3.957e-03
4.610e+00 5.440e-02 -3.983e-03
4.620e+00 5.449e-02 -3.990e-03
4.630e+00 5.459e-02 -3.974e-03
4.640e+00 5.466e-02 -3.933e-03
4.650e+00 5.471e-02 -3.868e-03
4.660e+00 5.470e-02 -3.782e-03
4.670e+00 5.464e-02 -3.677e-03
4.680e+00 5.452e-02 -3.555e-03
4.690e+00 5.432e-02 -3.416e-03
4.700e+00 5.405e-02 -3.258e-03
4.710e+00 5.373e-02 -3.079e-03
4.720e+00 5.337e-02 -2.876e-03
4.730e+00 5.299e-02 -2.650e-03
4.740e+00 5.261e-02 -2.400e-03
4.750e+00 5.225e-02 -2.131e-03
4.760e+00 5.191e-02 -1.847e-03
4.770e+00 5.162e-02 -1.554e-03
4.780e+00 5.136e-02 -1.263e-03
4.790e+00 5.113e-02 -9.822e-04
4.800e+00 5.094e-02 -7.220e-04
4.810e+00 5.076e-02 -4.903e-04
4.820e+00 5.059e-02 -2.922e-04
4.830e+00 5.043e-02 -1.295e-04
4.840e+00 5.026e-02 -5.215e-07
4.850e+00 5.007e-02 9.974e-05
4.860e+00 4.988e-02 1.779e-04
4.870e+00 4.966e-02 2.404e-04
4.880e+00 4.942e-02 2.909e-04
4.890e+00 4.916e-02 3.298e-04
4.900e+00 4.889e-02 3.533e-04
4.910e+00 4.862e-02 3.549e-04
4.920e+00 4.834e-02 3.268e-04
4.930e+00 4.806e-02 2.618e-04
4.940e+00 4.779e-02 1.539e-04
4.950e+00 4.752e-02 -6.680e-07
4.960e+00 4.724e-02 -2.043e-04
4.970e+00 4.694e-02 -4.570e-04
4.980e+00 4.662e-02 -7.551e-04
4.990e+00 4.629e-02 -1.089e-03
5.000e+00 4.593e-02 -1.445e-03
5.010e+00 4.554e-02 -1.807e-03
5.020e+00 4.514e-02 -2.159e-03
5.030e+00 4.473e-02 -2.494e-03
5.040e+00 4.432e-02 -2.808e-03
5.050e+00 4.391e-02 -3.102e-03
5.060e+00 4.352e-02 -3.379e-03
5.070e+00 4.315e-02 -3.639e-03
5.080e+00 4.282e-02 -3.886e-03
5.090e+00 4.252e-02 -4.118e-03
5.100e+00 4.228e-02 -4.336e-03
5.110e+00 4.210e-02 -4.539e-03
5.120e+00 4.197e-02 -4.727e-03
5.130e+00 4.190e-02 -4.899e-03
5.140e+00 4.188e-02 -5.056e-03
5.150e+00 4.189e-02 -5.196e-03
5.160e+00 4.191e-02 -5.318e-03
5.170e+00 4.193e-02 -5.421e-03
5.180e+00 4.194e-02 -5.501e-03
5.190e+00 4.192e-02 -5.557e-03
5.200e+00 4.188e-02 -5.587e-03
5.210e+00 4.183e-02 -5.590e-03
5.220e+00 4.177e-02 -5.567e-03
5.230e+00 4.170e-02 -5.524e-03
5.240e+00 4.163e-02 -5.464e-03
5.250e+00 4.157e-02 -5.393e-03
5.260e+00 4.151e-02 -5.315e-03
5.270e+00 4.146e-02 -5.232e-03
5.280e+00 4.141e-02 -5.144e-03
5.290e+00 4.138e-02 -5.051e-03
5.300e+00 4.136e-02 -4.953e-03
5.310e+00 4.135e-02 -4.853e-03
5.320e+00 4.136e-02 -4.755e-03
5.330e+00 4.137e-02 -4.666e-03
5.340e+00 4.140e-02 -4.590e-03
5.350e+00 4.143e-02 -4.535e-03
5.360e+00 4.146e-02 -4.505e-03
5.370e+00 4.149e-02 -4.503e-03
5.380e+00 4.151e-02 -4.531e-03
5.390e+00 4.150e-02 -4.591e-03
5.400e+00 4.145e-02 -4.680e-03
5.410e+00 4.135e-02 -4.797e-03
5.420e+00 4.120e-02 -4.938e-03
5.430e+00 4.098e-02 -5.099e-03
5.440e+00 4.069e-02 -5.276e-03
5.450e+00 4.034e-02 -5.464e-03
5.460e+00 3.994e-02 -5.659e-03
5.470e+00 3.949e-02 -5.855e-03
5.480e+00 3.902e-02 -6.050e-03
5.490e+00 3.852e-02 -6.240e-03
5.500e+00 3.801e-02 -6.424e-03
5.510e+00 3.749e-02 -6.605e-03
5.520e+00 3.698e-02 -6.780e-03
5.530e+00 3.647e-02 -6.950e-03
5.540e+00 3.600e-02 -7.111e-03
5.550e+00 3.555e-02 -7.260e-03
5.560e+00 3.514e-02 -7.393e-03
5.570e+00 3.478e-02 -7.506e-03
5.580e+00 3.445e-02 -7.597e-03
5.590e+00 3.415e-02 -7.660e-03
5.600e+00 3.386e-02 -7.695e-03
5.610e+00 3.359e-02 -7.697e-03
5.620e+00 3.331e-02 -7.663e-03
5.630e+00 3.301e-02 -7.592e-03
5.640e+00 3.270e-02 -7.490e-03
5.650e+00 3.240e-02 -7.364e-03
5.660e+00 3.212e-02 -7.224e-03
5.670e+00 3.189e-02 -7.072e-03
5.680e+00 3.173e-02 -6.909e-03
5.690e+00 3.163e-02 -6.732e-03
5.700e+00 3.160e-02 -6.545e-03
5.710e+00 3.163e-02 -6.354e-03
5.720e+00 3.170e-02 -6.163e-03
5.730e+00 3.181e-02 -5.982e-03
5.740e+00 3.195e-02 -5.815e-03
5.750e+00 3.212e-02 -5.670e-03
5.760e+00 3.231e-02 -5.554e-03
5.770e+00 3.251e-02 -5.467e-03
5.780e+00 3.274e-02 -5.411e-03
5.790e+00 3.296e-02 -5.382e-03
5.800e+00 3.317e-02 -5.375e-03
5.810e+00 3.336e-02 -5.386e-03
5.820e+00 3.352e-02 -5.413e-03
5.830e+00 3.366e-02 -5.455e-03
5.840e+00 3.377e-02 -5.516e-03
5.850e+00 3.386e-02 -5.601e-03
5.860e+00 3.395e-02 -5.716e-03
5.870e+00 3.404e-02 -5.864e-03
5.880e+00 3.413e-02 -6.040e-03
5.890e+00 3.421e-02 -6.236e-03
5.900e+00 3.428e-02 -6.442e-03
5.910e+00 3.434e-02 -6.647e-03
5.920e+00 3.437e-02 -6.846e-03
5.930e+00 3.439e-02 -7.033e-03
5.940e+00 3.438e-02 -7.211e-03
5.950e+00 3.436e-02 -7.382e-03
5.960e+00 3.431e-02 -7.550e-03
5.970e+00 3.425e-02 -7.721e-03
5.980e+00 3.418e-02 -7.896e-03
5.990e+00 3.409e-02 -8.077e-03
6.000e+00 3.399e-02 -8.261e-03
6.010e+00 3.387e-02 -8.442e-03
6.020e+00 3.373e-02 -8.611e-03
6.030e+00 3.356e-02 -8.759e-03
6.040e+00 3.337e-02 -8.886e-03
6.050e+00 3.317e-02 -8.995e-03
6.060e+00 3.298e-02 -9.092e-03
6.070e+00 3.280e-02 -9.185e-03
6.080e+00 3.264e-02 -9.278e-03
6.090e+00 3.251e-02 -9.373e-03
6.100e+00 3.240e-02 -9.474e-03
6.110e+00 3.231e-02 -9.579e-03
6.120e+00 3.224e-02 -9.689e-03
6.130e+00 3.219e-02 -9.800e-03
6.140e+00 3.214e-02 -9.906e-03
6.150e+00 3.210e-02 -9.999e-03
6.160e+00 3.206e-02 -1.006e-02
6.170e+00 3.200e-02 -1.007e-02
6.180e+00 3.192e-02 -9.995e-03
6.190e+00 3.179e-02 -9.820e-03
6.200e+00 3.161e-02 -9.529e-03
6.210e+00 3.138e-02 -9.129e-03
6.220e+00 3.112e-02 -8.645e-03
6.230e+00 3.081e-02 -8.111e-03
6.240e+00 3.047e-02 -7.568e-03
6.250e+00 3.011e-02 -7.054e-03
6.260e+00 2.972e-02 -6.597e-03
6.270e+00 2.934e-02 -6.211e-03
6.280e+00 2.900e-02 -5.895e-03
6.290e+00 2.874e-02 -5.635e-03
6.300e+00 2.860e-02 -5.416e-03
6.310e+00 2.862e-02 -5.231e-03
6.320e+00 2.878e-02 -5.079e-03
6.330e+00 2.905e-02 -4.961e-03
6.340e+00 2.939e-02 -4.879e-03
6.350e+00 2.977e-02 -4.835e-03
6.360e+00 3.017e-02 -4.832e-03
6.370e+00 3.056e-02 -4.866e-03
6.380e+00 3.094e-02 -4.930e-03
6.390e+00 3.129e-02 -5.014e-03
6.400e+00 3.161e-02 -5.105e-03
6.410e+00 3.189e-02 -5.190e-03
6.420e+00 3.213e-02 -5.258e-03
6.430e+00 3.232e-02 -5.302e-03
6.440e+00 3.247e-02 -5.314e-03
6.450e+00 3.255e-02 -5.291e-03
6.460e+00 3.257e-02 -5.232e-03
6.470e+00 3.252e-02 -5.138e-03
6.480e+00 3.242e-02 -5.015e-03
6.490e+00 3.225e-02 -4.868e-03
6.500e+00 3.204e-02 -4.701e-03
6.510e+00 3.180e-02 -4.518e-03
6.520e+00 3.154e-02 -4.321e-03
