# Time (ps)      real(F_0)
0.000e+00 1.000e+00
1.000e-01 9.810e-01
2.000e-01 9.626e-01
3.000e-01 9.449e-01
4.000e-01 9.277e-01
5.000e-01 9.112e-01
6.000e-01 8.952e-01
7.000e-01 8.798e-01
8.000e-01 8.649e-01
9.000e-01 8.505e-01
1.000e+00 8.365e-01
1.100e+00 8.230e-01
1.200e+00 8.100e-01
1.300e+00 7.974e-01
1.400e+00 7.852e-01
1.500e+00 7.733e-01
1.600e+00 7.619e-01
1.700e+00 7.507e-01
1.800e+00 7.400e-01
1.900e+00 7.295e-01
2.000e+00 7.194e-01
2.100e+00 7.096e-01
2.200e+00 7.001e-01
2.300e+00 6.908e-01
2.400e+00 6.818e-01
2.500e+00 6.731e-01
2.600e+00 6.646e-01
2.700e+00 6.563e-01
2.800e+00 6.483e-01
2.900e+00 6.405e-01
3.000e+00 6.329e-01
3.100e+00 6.255e-01
3.200e+00 6.183e-01
3.300e+00 6.113e-01
3.400e+00 6.045e-01
3.500e+00 5.978e-01
3.600e+00 5.913e-01
3.700e+00 5.850e-01
3.800e+00 5.788e-01
3.900e+00 5.728e-01
4.000e+00 5.669e-01
4.100e+00 5.611e-01
4.200e+00 5.555e-01
4.300e+00 5.500e-01
4.400e+00 5.446e-01
4.500e+00 5.394e-01
4.600e+00 5.342e-01
4.700e+00 5.292e-01
4.800e+00 5.243e-01
4.900e+00 5.194e-01
5.000e+00 5.147e-01
5.100e+00 5.101e-01
5.200e+00 5.055e-01
5.300e+00 5.010e-01
5.400e+00 4.967e-01
5.500e+00 4.924e-01
5.600e+00 4.882e-01
5.700e+00 4.840e-01
5.800e+00 4.800e-01
5.900e+00 4.760e-01
6.000e+00 4.720e-01
6.100e+00 4.682e-01
6.200e+00 4.644e-01
6.300e+00 4.607e-01
6.400e+00 4.570e-01
6.500e+00 4.534e-01
6.600e+00 4.498e-01
6.700e+00 4.463e-01
6.800e+00 4.429e-01
6.900e+00 4.395e-01
7.000e+00 4.361e-01
7.100e+00 4.328e-01
7.200e+00 4.296e-01
7.300e+00 4.264e-01
7.400e+00 4.232e-01
7.500e+00 4.201e-01
7.600e+00 4.170e-01
7.700e+00 4.140e-01
7.800e+00 4.110e-01
7.900e+00 4.080e-01
8.000e+00 4.051e-01
8.100e+00 4.022e-01
8.200e+00 3.993e-01
8.300e+00 3.965e-01
8.400e+00 3.937e-01
8.500e+00 3.910e-01
8.600e+00 3.883e-01
8.700e+00 3.856e-01
8.800e+00 3.829e-01
8.900e+00 3.803e-01
9.000e+00 3.777e-01
9.100e+00 3.751e-01
9.200e+00 3.726e-01
9.300e+00 3.701e-01
9.400e+00 3.676e-01
9.500e+00 3.651e-01
9.600e+00 3.627e-01
9.700e+00 3.603e-01
9.800e+00 3.579e-01
9.900e+00 3.555e-01
1.000e+01 3.532e-01
1.010e+01 3.508e-01
1.020e+01 3.485e-01
1.030e+01 3.463e-01
1.040e+01 3.440e-01
1.050e+01 3.418e-01
1.060e+01 3.395e-01
1.070e+01 3.374e-01
1.080e+01 3.352e-01
1.090e+01 3.330e-01
1.100e+01 3.309e-01
1.110e+01 3.288e-01
1.120e+01 3.267e-01
1.130e+01 3.246e-01
1.140e+01 3.225e-01
1.150e+01 3.205e-01
1.160e+01 3.184e-01
1.170e+01 3.164e-01
1.180e+01 3.144e-01
1.190e+01 3.125e-01
1.200e+01 3.105e-01
1.210e+01 3.086e-01
1.220e+01 3.066e-01
1.230e+01 3.047e-01
1.240e+01 3.028e-01
1.250e+01 3.009e-01
1.260e+01 2.991e-01
1.270e+01 2.972e-01
1.280e+01 2.954e-01
1.290e+01 2.935e-01
1.300e+01 2.917e-01
1.310e+01 2.899e-01
1.320e+01 2.881e-01
1.330e+01 2.864e-01
1.340e+01 2.846e-01
1.350e+01 2.829e-01
1.360e+01 2.811e-01
1.370e+01 2.794e-01
1.380e+01 2.777e-01
1.390e+01 2.760e-01
1.400e+01 2.743e-01
1.410e+01 2.727e-01
1.420e+01 2.710e-01
1.430e+01 2.694e-01
1.440e+01 2.677e-01
1.450e+01 2.661e-01
1.460e+01 2.645e-01
1.470e+01 2.629e-01
1.480e+01 2.613e-01
1.490e+01 2.598e-01
1.500e+01 2.582e-01
1.510e+01 2.566e-01
1.520e+01 2.551e-01
1.530e+01 2.536e-01
1.540e+01 2.521e-01
1.550e+01 2.506e-01
1.560e+01 2.491e-01
1.570e+01 2.476e-01
1.580e+01 2.461e-01
1.590e+01 2.446e-01
1.600e+01 2.432e-01
1.610e+01 2.417e-01
1.620e+01 2.403e-01
1.630e+01 2.389e-01
1.640e+01 2.375e-01
1.650e+01 2.361e-01
1.660e+01 2.347e-01
1.670e+01 2.333e-01
1.680e+01 2.319e-01
1.690e+01 2.305e-01
1.700e+01 2.292e-01
1.710e+01 2.278e-01
1.720e+01 2.265e-01
1.730e+01 2.252e-01
1.740e+01 2.238e-01
1.750e+01 2.225e-01
1.760e+01 2.212e-01
1.770e+01 2.199e-01
1.780e+01 2.187e-01
1.790e+01 2.174e-01
1.800e+01 2.161e-01
1.810e+01 2.149e-01
1.820e+01 2.136e-01
1.830e+01 2.124e-01
1.840e+01 2.111e-01
1.850e+01 2.099e-01
1.860e+01 2.087e-01
1.870e+01 2.075e-01
1.880e+01 2.063e-01
1.890e+01 2.051e-01
1.900e+01 2.039e-01
1.910e+01 2.028e-01
1.920e+01 2.016e-01
1.930e+01 2.004e-01
1.940e+01 1.993e-01
1.950e+01 1.981e-01
1.960e+01 1.970e-01
1.970e+01 1.959e-01
1.980e+01 1.948e-01
1.990e+01 1.936e-01
2.000e+01 1.925e-01
2.010e+01 1.914e-01
2.020e+01 1.904e-01
2.030e+01 1.893e-01
2.040e+01 1.882e-01
2.050e+01 1.871e-01
2.060e+01 1.861e-01
2.070e+01 1.850e-01
2.080e+01 1.840e-01
2.090e+01 1.829e-01
2.100e+01 1.819e-01
2.110e+01 1.809e-01
2.120e+01 1.799e-01
2.130e+01 1.788e-01
2.140e+01 1.778e-01
2.150e+01 1.768e-01
2.160e+01 1.759e-01
2.170e+01 1.749e-01
2.180e+01 1.739e-01
2.190e+01 1.729e-01
2.200e+01 1.720e-01
2.210e+01 1.710e-01
2.220e+01 1.700e-01
2.230e+01 1.691e-01
2.240e+01 1.682e-01
2.250e+01 1.672e-01
2.260e+01 1.663e-01
2.270e+01 1.654e-01
2.280e+01 1.645e-01
2.290e+01 1.636e-01
2.300e+01 1.627e-01
2.310e+01 1.618e-01
2.320e+01 1.609e-01
2.330e+01 1.600e-01
2.340e+01 1.591e-01
2.350e+01 1.582e-01
2.360e+01 1.574e-01
2.370e+01 1.565e-01
2.380e+01 1.557e-01
2.390e+01 1.548e-01
2.400e+01 1.540e-01
2.410e+01 1.531e-01
2.420e+01 1.523e-01
2.430e+01 1.515e-01
2.440e+01 1.506e-01
2.450e+01 1.498e-01
2.460e+01 1.490e-01
2.470e+01 1.482e-01
2.480e+01 1.474e-01
2.490e+01 1.466e-01
2.500e+01 1.458e-01
2.510e+01 1.450e-01
2.520e+01 1.443e-01
2.530e+01 1.435e-01
2.540e+01 1.427e-01
2.550e+01 1.420e-01
2.560e+01 1.412e-01
2.570e+01 1.405e-01
2.580e+01 1.397e-01
2.590e+01 1.390e-01
2.600e+01 1.382e-01
2.610e+01 1.375e-01
2.620e+01 1.368e-01
2.630e+01 1.360e-01
2.640e+01 1.353e-01
2.650e+01 1.346e-01
2.660e+01 1.339e-01
2.670e+01 1.332e-01
2.680e+01 1.325e-01
2.690e+01 1.318e-01
2.700e+01 1.311e-01
2.710e+01 1.304e-01
2.720e+01 1.298e-01
2.730e+01 1.291e-01
2.740e+01 1.284e-01
2.750e+01 1.277e-01
2.760e+01 1.271e-01
2.770e+01 1.264e-01
2.780e+01 1.258e-01
2.790e+01 1.251e-01
2.800e+01 1.245e-01
2.810e+01 1.238e-01
2.820e+01 1.232e-01
2.830e+01 1.226e-01
2.840e+01 1.219e-01
2.850e+01 1.213e-01
2.860e+01 1.207e-01
2.870e+01 1.201e-01
2.880e+01 1.195e-01
2.890e+01 1.189e-01
2.900e+01 1.183e-01
2.910e+01 1.177e-01
2.920e+01 1.171e-01
2.930e+01 1.165e-01
2.940e+01 1.159e-01
2.950e+01 1.153e-01
2.960e+01 1.147e-01
2.970e+01 1.141e-01
2.980e+01 1.136e-01
2.990e+01 1.130e-01
3.000e+01 1.124e-01
3.010e+01 1.119e-01
3.020e+01 1.113e-01
3.030e+01 1.108e-01
3.040e+01 1.102e-01
3.050e+01 1.097e-01
3.060e+01 1.091e-01
3.070e+01 1.086e-01
3.080e+01 1.081e-01
3.090e+01 1.075e-01
3.100e+01 1.070e-01
3.110e+01 1.065e-01
3.120e+01 1.060e-01
3.130e+01 1.054e-01
3.140e+01 1.049e-01
3.150e+01 1.044e-01
3.160e+01 1.039e-01
3.170e+01 1.034e-01
3.180e+01 1.029e-01
3.190e+01 1.024e-01
3.200e+01 1.019e-01
3.210e+01 1.014e-01
3.220e+01 1.009e-01
3.230e+01 1.005e-01
3.240e+01 9.998e-02
3.250e+01 9.950e-02
3.260e+01 9.903e-02
3.270e+01 9.855e-02
3.280e+01 9.809e-02
3.290e+01 9.762e-02
3.300e+01 9.716e-02
3.310e+01 9.670e-02
3.320e+01 9.625e-02
3.330e+01 9.580e-02
3.340e+01 9.535e-02
3.350e+01 9.490e-02
3.360e+01 9.446e-02
3.370e+01 9.402e-02
3.380e+01 9.358e-02
3.390e+01 9.315e-02
3.400e+01 9.271e-02
3.410e+01 9.228e-02
3.420e+01 9.186e-02
3.430e+01 9.144e-02
3.440e+01 9.102e-02
3.450e+01 9.060e-02
3.460e+01 9.018e-02
3.470e+01 8.977e-02
3.480e+01 8.936e-02
3.490e+01 8.896e-02
3.500e+01 8.855e-02
3.510e+01 8.815e-02
3.520e+01 8.776e-02
3.530e+01 8.736e-02
3.540e+01 8.697e-02
3.550e+01 8.658e-02
3.560e+01 8.619e-02
3.570e+01 8.580e-02
3.580e+01 8.542e-02
3.590e+01 8.504e-02
3.600e+01 8.466e-02
3.610e+01 8.429e-02
3.620e+01 8.392e-02
3.630e+01 8.355e-02
3.640e+01 8.318e-02
3.650e+01 8.281e-02
3.660e+01 8.245e-02
3.670e+01 8.209e-02
3.680e+01 8.173e-02
3.690e+01 8.138e-02
3.700e+01 8.103e-02
3.710e+01 8.068e-02
3.720e+01 8.033e-02
3.730e+01 7.998e-02
3.740e+01 7.964e-02
3.750e+01 7.930e-02
3.760e+01 7.896e-02
3.770e+01 7.862e-02
3.780e+01 7.829e-02
3.790e+01 7.795e-02
3.800e+01 7.762e-02
3.810e+01 7.730e-02
3.820e+01 7.697e-02
3.830e+01 7.665e-02
3.840e+01 7.633e-02
3.850e+01 7.601e-02
3.860e+01 7.569e-02
3.870e+01 7.537e-02
3.880e+01 7.506e-02
3.890e+01 7.475e-02
3.900e+01 7.444e-02
3.910e+01 7.414e-02
3.920e+01 7.383e-02
3.930e+01 7.353e-02
3.940e+01 7.323e-02
3.950e+01 7.293e-02
3.960e+01 7.263e-02
3.970e+01 7.234e-02
3.980e+01 7.205e-02
3.990e+01 7.176e-02
4.000e+01 7.147e-02
4.010e+01 7.118e-02
4.020e+01 7.089e-02
4.030e+01 7.061e-02
4.040e+01 7.033e-02
4.050e+01 7.005e-02
4.060e+01 6.977e-02
4.070e+01 6.950e-02
4.080e+01 6.923e-02
4.090e+01 6.895e-02
4.100e+01 6.868e-02
4.110e+01 6.842e-02
4.120e+01 6.815e-02
4.130e+01 6.788e-02
4.140e+01 6.762e-02
4.150e+01 6.736e-02
4.160e+01 6.710e-02
4.170e+01 6.684e-02
4.180e+01 6.659e-02
4.190e+01 6.633e-02
4.200e+01 6.608e-02
4.210e+01 6.583e-02
4.220e+01 6.558e-02
4.230e+01 6.533e-02
4.240e+01 6.509e-02
4.250e+01 6.484e-02
4.260e+01 6.460e-02
4.270e+01 6.436e-02
4.280e+01 6.412e-02
4.290e+01 6.388e-02
4.300e+01 6.365e-02
4.310e+01 6.341e-02
4.320e+01 6.318e-02
4.330e+01 6.295e-02
4.340e+01 6.272e-02
4.350e+01 6.249e-02
4.360e+01 6.226e-02
4.370e+01 6.204e-02
4.380e+01 6.181e-02
4.390e+01 6.159e-02
4.400e+01 6.137e-02
4.410e+01 6.115e-02
4.420e+01 6.093e-02
4.430e+01 6.072e-02
4.440e+01 6.050e-02
4.450e+01 6.029e-02
4.460e+01 6.008e-02
4.470e+01 5.987e-02
4.480e+01 5.966e-02
4.490e+01 5.945e-02
4.500e+01 5.924e-02
4.510e+01 5.904e-02
4.520e+01 5.883e-02
4.530e+01 5.863e-02
4.540e+01 5.843e-02
4.550e+01 5.823e-02
4.560e+01 5.803e-02
4.570e+01 5.783e-02
4.580e+01 5.764e-02
4.590e+01 5.744e-02
4.600e+01 5.725e-02
4.610e+01 5.706e-02
4.620e+01 5.687e-02
4.630e+01 5.668e-02
4.640e+01 5.649e-02
4.650e+01 5.630e-02
4.660e+01 5.612e-02
4.670e+01 5.593e-02
4.680e+01 5.575e-02
4.690e+01 5.557e-02
4.700e+01 5.539e-02
4.710e+01 5.521e-02
4.720e+01 5.503e-02
4.730e+01 5.485e-02
4.740e+01 5.468e-02
4.750e+01 5.450e-02
4.760e+01 5.433e-02
4.770e+01 5.416e-02
4.780e+01 5.399e-02
4.790e+01 5.382e-02
4.800e+01 5.365e-02
4.810e+01 5.348e-02
4.820e+01 5.331e-02
4.830e+01 5.315e-02
4.840e+01 5.298e-02
4.850e+01 5.282e-02
4.860e+01 5.266e-02
4.870e+01 5.250e-02
4.880e+01 5.234e-02
4.890e+01 5.218e-02
4.900e+01 5.202e-02
4.910e+01 5.186e-02
4.920e+01 5.171e-02
4.930e+01 5.155e-02
4.940e+01 5.140e-02
4.950e+01 5.124e-02
4.960e+01 5.109e-02
4.970e+01 5.094e-02
4.980e+01 5.079e-02
4.990e+01 5.064e-02
5.000e+01 5.050e-02
5.010e+01 5.035e-02
5.020e+01 5.020e-02
5.030e+01 5.006e-02
5.040e+01 4.991e-02
5.050e+01 4.977e-02
5.060e+01 4.963e-02
5.070e+01 4.949e-02
5.080e+01 4.935e-02
5.090e+01 4.921e-02
5.100e+01 4.907e-02
5.110e+01 4.893e-02
5.120e+01 4.880e-02
5.130e+01 4.866e-02
5.140e+01 4.853e-02
5.150e+01 4.839e-02
5.160e+01 4.826e-02
5.170e+01 4.813e-02
5.180e+01 4.800e-02
5.190e+01 4.787e-02
5.200e+01 4.774e-02
5.210e+01 4.761e-02
5.220e+01 4.748e-02
5.230e+01 4.736e-02
5.240e+01 4.723e-02
5.250e+01 4.711e-02
5.260e+01 4.698e-02
5.270e+01 4.686e-02
5.280e+01 4.674e-02
5.290e+01 4.661e-02
5.300e+01 4.649e-02
5.310e+01 4.637e-02
5.320e+01 4.625e-02
5.330e+01 4.614e-02
5.340e+01 4.602e-02
5.350e+01 4.590e-02
5.360e+01 4.579e-02
5.370e+01 4.567e-02
5.380e+01 4.556e-02
5.390e+01 4.544e-02
5.400e+01 4.533e-02
5.410e+01 4.522e-02
5.420e+01 4.510e-02
5.430e+01 4.499e-02
5.440e+01 4.488e-02
5.450e+01 4.477e-02
5.460e+01 4.467e-02
5.470e+01 4.456e-02
5.480e+01 4.445e-02
5.490e+01 4.434e-02
5.500e+01 4.424e-02
5.510e+01 4.413e-02
5.520e+01 4.403e-02
5.530e+01 4.393e-02
5.540e+01 4.382e-02
5.550e+01 4.372e-02
5.560e+01 4.362e-02
5.570e+01 4.352e-02
5.580e+01 4.342e-02
5.590e+01 4.332e-02
5.600e+01 4.322e-02
5.610e+01 4.312e-02
5.620e+01 4.302e-02
5.630e+01 4.293e-02
5.640e+01 4.283e-02
5.650e+01 4.274e-02
5.660e+01 4.264e-02
5.670e+01 4.255e-02
5.680e+01 4.245e-02
5.690e+01 4.236e-02
5.700e+01 4.227e-02
5.710e+01 4.218e-02
5.720e+01 4.208e-02
5.730e+01 4.199e-02
5.740e+01 4.190e-02
5.750e+01 4.181e-02
5.760e+01 4.173e-02
5.770e+01 4.164e-02
5.780e+01 4.155e-02
5.790e+01 4.146e-02
5.800e+01 4.138e-02
5.810e+01 4.129e-02
5.820e+01 4.120e-02
5.830e+01 4.112e-02
5.840e+01 4.104e-02
5.850e+01 4.095e-02
5.860e+01 4.087e-02
5.870e+01 4.079e-02
5.880e+01 4.070e-02
5.890e+01 4.062e-02
5.900e+01 4.054e-02
5.910e+01 4.046e-02
5.920e+01 4.038e-02
5.930e+01 4.030e-02
5.940e+01 4.022e-02
5.950e+01 4.015e-02
5.960e+01 4.007e-02
5.970e+01 3.999e-02
5.980e+01 3.991e-02
5.990e+01 3.984e-02
6.000e+01 3.976e-02
6.010e+01 3.969e-02
6.020e+01 3.961e-02
6.030e+01 3.954e-02
6.040e+01 3.947e-02
6.050e+01 3.939e-02
6.060e+01 3.932e-02
6.070e+01 3.925e-02
6.080e+01 3.918e-02
6.090e+01 3.910e-02
6.100e+01 3.903e-02
6.110e+01 3.896e-02
6.120e+01 3.889e-02
6.130e+01 3.882e-02
6.140e+01 3.876e-02
6.150e+01 3.869e-02
6.160e+01 3.862e-02
6.170e+01 3.855e-02
6.180e+01 3.848e-02
6.190e+01 3.842e-02
6.200e+01 3.835e-02
6.210e+01 3.829e-02
6.220e+01 3.822e-02
6.230e+01 3.816e-02
6.240e+01 3.809e-02
6.250e+01 3.803e-02
6.260e+01 3.796e-02
6.270e+01 3.790e-02
6.280e+01 3.784e-02
6.290e+01 3.778e-02
6.300e+01 3.771e-02
6.310e+01 3.765e-02
6.320e+01 3.759e-02
6.330e+01 3.753e-02
6.340e+01 3.747e-02
6.350e+01 3.741e-02
6.360e+01 3.735e-02
6.370e+01 3.729e-02
6.380e+01 3.723e-02
6.390e+01 3.718e-02
6.400e+01 3.712e-02
6.410e+01 3.706e-02
6.420e+01 3.700e-02
6.430e+01 3.695e-02
6.440e+01 3.689e-02
6.450e+01 3.683e-02
6.460e+01 3.678e-02
6.470e+01 3.672e-02
6.480e+01 3.667e-02
6.490e+01 3.661e-02
6.500e+01 3.656e-02
6.510e+01 3.651e-02
6.520e+01 3.645e-02
6.530e+01 3.640e-02
6.540e+01 3.635e-02
6.550e+01 3.630e-02
6.560e+01 3.624e-02
6.570e+01 3.619e-02
6.580e+01 3.614e-02
6.590e+01 3.609e-02
6.600e+01 3.604e-02
6.610e+01 3.599e-02
6.620e+01 3.594e-02
6.630e+01 3.589e-02
6.640e+01 3.584e-02
6.650e+01 3.579e-02
6.660e+01 3.574e-02
6.670e+01 3.569e-02
6.680e+01 3.565e-02
6.690e+01 3.560e-02
6.700e+01 3.555e-02
6.710e+01 3.550e-02
6.720e+01 3.546e-02
6.730e+01 3.541e-02
6.740e+01 3.537e-02
6.750e+01 3.532e-02
6.760e+01 3.527e-02
6.770e+01 3.523e-02
6.780e+01 3.518e-02
6.790e+01 3.514e-02
6.800e+01 3.510e-02
6.810e+01 3.505e-02
6.820e+01 3.501e-02
6.830e+01 3.496e-02
6.840e+01 3.492e-02
6.850e+01 3.488e-02
6.860e+01 3.484e-02
6.870e+01 3.479e-02
6.880e+01 3.475e-02
6.890e+01 3.471e-02
6.900e+01 3.467e-02
6.910e+01 3.463e-02
6.920e+01 3.459e-02
6.930e+01 3.455e-02
6.940e+01 3.451e-02
6.950e+01 3.447e-02
6.960e+01 3.443e-02
6.970e+01 3.439e-02
6.980e+01 3.435e-02
6.990e+01 3.431e-02
7.000e+01 3.427e-02
7.010e+01 3.423e-02
7.020e+01 3.419e-02
7.030e+01 3.415e-02
7.040e+01 3.412e-02
7.050e+01 3.408e-02
7.060e+01 3.404e-02
7.070e+01 3.401e-02
7.080e+01 3.397e-02
7.090e+01 3.393e-02
7.100e+01 3.390e-02
7.110e+01 3.386e-02
7.120e+01 3.382e-02
7.130e+01 3.379e-02
7.140e+01 3.375e-02
7.150e+01 3.372e-02
7.160e+01 3.368e-02
7.170e+01 3.365e-02
7.180e+01 3.362e-02
7.190e+01 3.358e-02
7.200e+01 3.355e-02
7.210e+01 3.351e-02
7.220e+01 3.348e-02
7.230e+01 3.345e-02
7.240e+01 3.341e-02
7.250e+01 3.338e-02
7.260e+01 3.335e-02
7.270e+01 3.332e-02
7.280e+01 3.328e-02
7.290e+01 3.325e-02
7.300e+01 3.322e-02
7.310e+01 3.319e-02
7.320e+01 3.316e-02
7.330e+01 3.313e-02
7.340e+01 3.310e-02
7.350e+01 3.307e-02
7.360e+01 3.304e-02
7.370e+01 3.301e-02
7.380e+01 3.298e-02
7.390e+01 3.295e-02
7.400e+01 3.292e-02
7.410e+01 3.289e-02
7.420e+01 3.286e-02
7.430e+01 3.283e-02
7.440e+01 3.280e-02
7.450e+01 3.277e-02
7.460e+01 3.274e-02
7.470e+01 3.271e-02
7.480e+01 3.269e-02
7.490e+01 3.266e-02
7.500e+01 3.263e-02
7.510e+01 3.260e-02
7.520e+01 3.258e-02
7.530e+01 3.255e-02
7.540e+01 3.252e-02
7.550e+01 3.249e-02
7.560e+01 3.247e-02
7.570e+01 3.244e-02
7.580e+01 3.242e-02
7.590e+01 3.239e-02
7.600e+01 3.236e-02
7.610e+01 3.234e-02
7.620e+01 3.231e-02
7.630e+01 3.229e-02
7.640e+01 3.226e-02
7.650e+01 3.224e-02
7.660e+01 3.221e-02
7.670e+01 3.219e-02
7.680e+01 3.216e-02
7.690e+01 3.214e-02
7.700e+01 3.211e-02
7.710e+01 3.209e-02
7.720e+01 3.207e-02
7.730e+01 3.204e-02
7.740e+01 3.202e-02
7.750e+01 3.200e-02
7.760e+01 3.197e-02
7.770e+01 3.195e-02
7.780e+01 3.193e-02
7.790e+01 3.190e-02
7.800e+01 3.188e-02
7.810e+01 3.186e-02
7.820e+01 3.184e-02
7.830e+01 3.181e-02
7.840e+01 3.179e-02
7.850e+01 3.177e-02
7.860e+01 3.175e-02
7.870e+01 3.173e-02
7.880e+01 3.170e-02
7.890e+01 3.168e-02
7.900e+01 3.166e-02
7.910e+01 3.164e-02
7.920e+01 3.162e-02
7.930e+01 3.160e-02
7.940e+01 3.158e-02
7.950e+01 3.156e-02
7.960e+01 3.154e-02
7.970e+01 3.152e-02
7.980e+01 3.150e-02
7.990e+01 3.148e-02
8.000e+01 3.146e-02
8.010e+01 3.144e-02
8.020e+01 3.142e-02
8.030e+01 3.140e-02
8.040e+01 3.138e-02
8.050e+01 3.136e-02
8.060e+01 3.134e-02
8.070e+01 3.132e-02
8.080e+01 3.130e-02
8.090e+01 3.129e-02
8.100e+01 3.127e-02
8.110e+01 3.125e-02
8.120e+01 3.123e-02
8.130e+01 3.121e-02
8.140e+01 3.119e-02
8.150e+01 3.118e-02
8.160e+01 3.116e-02
8.170e+01 3.114e-02
8.180e+01 3.112e-02
8.190e+01 3.111e-02
8.200e+01 3.109e-02
8.210e+01 3.107e-02
8.220e+01 3.105e-02
8.230e+01 3.104e-02
8.240e+01 3.102e-02
8.250e+01 3.100e-02
8.260e+01 3.099e-02
8.270e+01 3.097e-02
8.280e+01 3.095e-02
8.290e+01 3.094e-02
8.300e+01 3.092e-02
8.310e+01 3.091e-02
8.320e+01 3.089e-02
8.330e+01 3.087e-02
8.340e+01 3.086e-02
8.350e+01 3.084e-02
8.360e+01 3.083e-02
8.370e+01 3.081e-02
8.380e+01 3.080e-02
8.390e+01 3.078e-02
8.400e+01 3.077e-02
8.410e+01 3.075e-02
8.420e+01 3.074e-02
8.430e+01 3.072e-02
8.440e+01 3.071e-02
8.450e+01 3.069e-02
8.460e+01 3.068e-02
8.470e+01 3.066e-02
8.480e+01 3.065e-02
8.490e+01 3.063e-02
8.500e+01 3.062e-02
8.510e+01 3.060e-02
8.520e+01 3.059e-02
8.530e+01 3.058e-02
8.540e+01 3.056e-02
8.550e+01 3.055e-02
8.560e+01 3.054e-02
8.570e+01 3.052e-02
8.580e+01 3.051e-02
8.590e+01 3.050e-02
8.600e+01 3.048e-02
8.610e+01 3.047e-02
8.620e+01 3.046e-02
8.630e+01 3.044e-02
8.640e+01 3.043e-02
8.650e+01 3.042e-02
8.660e+01 3.040e-02
8.670e+01 3.039e-02
8.680e+01 3.038e-02
8.690e+01 3.037e-02
8.700e+01 3.035e-02
8.710e+01 3.034e-02
8.720e+01 3.033e-02
8.730e+01 3.032e-02
8.740e+01 3.031e-02
8.750e+01 3.029e-02
8.760e+01 3.028e-02
8.770e+01 3.027e-02
8.780e+01 3.026e-02
8.790e+01 3.025e-02
8.800e+01 3.024e-02
8.810e+01 3.022e-02
8.820e+01 3.021e-02
8.830e+01 3.020e-02
8.840e+01 3.019e-02
8.850e+01 3.018e-02
8.860e+01 3.017e-02
8.870e+01 3.016e-02
8.880e+01 3.015e-02
8.890e+01 3.013e-02
8.900e+01 3.012e-02
8.910e+01 3.011e-02
8.920e+01 3.010e-02
8.930e+01 3.009e-02
8.940e+01 3.008e-02
8.950e+01 3.007e-02
8.960e+01 3.006e-02
8.970e+01 3.005e-02
8.980e+01 3.004e-02
8.990e+01 3.003e-02
9.000e+01 3.002e-02
9.010e+01 3.001e-02
9.020e+01 3.000e-02
9.030e+01 2.999e-02
9.040e+01 2.998e-02
9.050e+01 2.997e-02
9.060e+01 2.996e-02
9.070e+01 2.995e-02
9.080e+01 2.994e-02
9.090e+01 2.993e-02
9.100e+01 2.992e-02
9.110e+01 2.991e-02
9.120e+01 2.990e-02
9.130e+01 2.989e-02
9.140e+01 2.988e-02
9.150e+01 2.987e-02
9.160e+01 2.987e-02
9.170e+01 2.986e-02
9.180e+01 2.985e-02
9.190e+01 2.984e-02
9.200e+01 2.983e-02
9.210e+01 2.982e-02
9.220e+01 2.981e-02
9.230e+01 2.980e-02
9.240e+01 2.979e-02
9.250e+01 2.979e-02
9.260e+01 2.978e-02
9.270e+01 2.977e-02
9.280e+01 2.976e-02
9.290e+01 2.975e-02
9.300e+01 2.974e-02
9.310e+01 2.974e-02
9.320e+01 2.973e-02
9.330e+01 2.972e-02
9.340e+01 2.971e-02
9.350e+01 2.970e-02
9.360e+01 2.970e-02
9.370e+01 2.969e-02
9.380e+01 2.968e-02
9.390e+01 2.967e-02
9.400e+01 2.966e-02
9.410e+01 2.966e-02
9.420e+01 2.965e-02
9.430e+01 2.964e-02
9.440e+01 2.963e-02
9.450e+01 2.963e-02
9.460e+01 2.962e-02
9.470e+01 2.961e-02
9.480e+01 2.960e-02
9.490e+01 2.960e-02
9.500e+01 2.959e-02
9.510e+01 2.958e-02
9.520e+01 2.958e-02
9.530e+01 2.957e-02
9.540e+01 2.956e-02
9.550e+01 2.955e-02
9.560e+01 2.955e-02
9.570e+01 2.954e-02
9.580e+01 2.953e-02
9.590e+01 2.953e-02
9.600e+01 2.952e-02
9.610e+01 2.951e-02
9.620e+01 2.951e-02
9.630e+01 2.950e-02
9.640e+01 2.949e-02
9.650e+01 2.949e-02
9.660e+01 2.948e-02
9.670e+01 2.947e-02
9.680e+01 2.947e-02
9.690e+01 2.946e-02
9.700e+01 2.945e-02
9.710e+01 2.945e-02
9.720e+01 2.944e-02
9.730e+01 2.944e-02
9.740e+01 2.943e-02
9.750e+01 2.942e-02
9.760e+01 2.942e-02
9.770e+01 2.941e-02
9.780e+01 2.940e-02
9.790e+01 2.940e-02
9.800e+01 2.939e-02
9.810e+01 2.939e-02
9.820e+01 2.938e-02
9.830e+01 2.938e-02
9.840e+01 2.937e-02
9.850e+01 2.936e-02
9.860e+01 2.936e-02
9.870e+01 2.935e-02
9.880e+01 2.935e-02
9.890e+01 2.934e-02
9.900e+01 2.934e-02
9.910e+01 2.933e-02
9.920e+01 2.932e-02
9.930e+01 2.932e-02
9.940e+01 2.931e-02
9.950e+01 2.931e-02
9.960e+01 2.930e-02
9.970e+01 2.930e-02
