# Time (ps)      real(F_0)      im(F_0)
0.000e+00 9.997e-01 0.000e+00
1.000e-02 1.000e+00 0.000e+00
2.000e-02 9.990e-01 0.000e+00
3.000e-02 9.966e-01 0.000e+00
4.000e-02 9.929e-01 0.000e+00
5.000e-02 9.880e-01 0.000e+00
6.000e-02 9.822e-01 0.000e+00
7.000e-02 9.756e-01 0.000e+00
8.000e-02 9.685e-01 0.000e+00
9.000e-02 9.609e-01 0.000e+00
1.000e-01 9.529e-01 0.000e+00
1.100e-01 9.447e-01 0.000e+00
1.200e-01 9.362e-01 0.000e+00
1.300e-01 9.275e-01 0.000e+00
1.400e-01 9.185e-01 0.000e+00
1.500e-01 9.094e-01 0.000e+00
1.600e-01 9.002e-01 0.000e+00
1.700e-01 8.908e-01 0.000e+00
1.800e-01 8.814e-01 0.000e+00
1.900e-01 8.720e-01 0.000e+00
2.000e-01 8.626e-01 0.000e+00
2.100e-01 8.534e-01 0.000e+00
2.200e-01 8.444e-01 0.000e+00
2.300e-01 8.355e-01 0.000e+00
2.400e-01 8.269e-01 0.000e+00
2.500e-01 8.185e-01 0.000e+00
2.600e-01 8.104e-01 0.000e+00
2.700e-01 8.026e-01 0.000e+00
2.800e-01 7.950e-01 0.000e+00
2.900e-01 7.877e-01 0.000e+00
3.000e-01 7.806e-01 0.000e+00
3.100e-01 7.737e-01 0.000e+00
3.200e-01 7.670e-01 0.000e+00
3.300e-01 7.605e-01 0.000e+00
3.400e-01 7.540e-01 0.000e+00
3.500e-01 7.478e-01 0.000e+00
3.600e-01 7.417e-01 0.000e+00
3.700e-01 7.357e-01 0.000e+00
3.800e-01 7.298e-01 0.000e+00
3.900e-01 7.240e-01 0.000e+00
4.000e-01 7.182e-01 0.000e+00
4.100e-01 7.124e-01 0.000e+00
4.200e-01 7.065e-01 0.000e+00
4.300e-01 7.006e-01 0.000e+00
4.400e-01 6.946e-01 0.000e+00
4.500e-01 6.886e-01 0.000e+00
4.600e-01 6.825e-01 0.000e+00
4.700e-01 6.765e-01 0.000e+00
4.800e-01 6.705e-01 0.000e+00
4.900e-01 6.646e-01 0.000e+00
5.000e-01 6.587e-01 0.000e+00
5.100e-01 6.530e-01 0.000e+00
5.200e-01 6.474e-01 0.000e+00
5.300e-01 6.420e-01 0.000e+00
5.400e-01 6.366e-01 0.000e+00
5.500e-01 6.314e-01 0.000e+00
5.600e-01 6.263e-01 0.000e+00
5.700e-01 6.212e-01 0.000e+00
5.800e-01 6.162e-01 0.000e+00
5.900e-01 6.112e-01 0.000e+00
6.000e-01 6.062e-01 0.000e+00
6.100e-01 6.012e-01 0.000e+00
6.200e-01 5.962e-01 0.000e+00
6.300e-01 5.913e-01 0.000e+00
6.400e-01 5.865e-01 0.000e+00
6.500e-01 5.819e-01 0.000e+00
6.600e-01 5.774e-01 0.000e+00
6.700e-01 5.731e-01 0.000e+00
6.800e-01 5.689e-01 0.000e+00
6.900e-01 5.648e-01 0.000e+00
7.000e-01 5.608e-01 0.000e+00
7.100e-01 5.570e-01 0.000e+00
7.200e-01 5.532e-01 0.000e+00
7.300e-01 5.495e-01 0.000e+00
7.400e-01 5.457e-01 0.000e+00
7.500e-01 5.420e-01 0.000e+00
7.600e-01 5.381e-01 0.000e+00
7.700e-01 5.341e-01 0.000e+00
7.800e-01 5.300e-01 0.000e+00
7.900e-01 5.258e-01 0.000e+00
8.000e-01 5.216e-01 0.000e+00
8.100e-01 5.174e-01 0.000e+00
8.200e-01 5.132e-01 0.000e+00
8.300e-01 5.092e-01 0.000e+00
8.400e-01 5.054e-01 0.000e+00
8.500e-01 5.017e-01 0.000e+00
8.600e-01 4.982e-01 0.000e+00
8.700e-01 4.948e-01 0.000e+00
8.800e-01 4.915e-01 0.000e+00
8.900e-01 4.882e-01 0.000e+00
9.000e-01 4.849e-01 0.000e+00
9.100e-01 4.815e-01 0.000e+00
9.200e-01 4.781e-01 0.000e+00
9.300e-01 4.747e-01 0.000e+00
9.400e-01 4.713e-01 0.000e+00
9.500e-01 4.680e-01 0.000e+00
9.600e-01 4.649e-01 0.000e+00
9.700e-01 4.618e-01 0.000e+00
9.800e-01 4.590e-01 0.000e+00
9.900e-01 4.564e-01 0.000e+00
1.000e+00 4.540e-01 0.000e+00
1.010e+00 4.519e-01 0.000e+00
1.020e+00 4.500e-01 0.000e+00
1.030e+00 4.483e-01 0.000e+00
1.040e+00 4.467e-01 0.000e+00
1.050e+00 4.450e-01 0.000e+00
1.060e+00 4.433e-01 0.000e+00
1.070e+00 4.415e-01 0.000e+00
1.080e+00 4.396e-01 0.000e+00
1.090e+00 4.375e-01 0.000e+00
1.100e+00 4.353e-01 0.000e+00
1.110e+00 4.331e-01 0.000e+00
1.120e+00 4.308e-01 0.000e+00
1.130e+00 4.285e-01 0.000e+00
1.140e+00 4.260e-01 0.000e+00
1.150e+00 4.233e-01 0.000e+00
1.160e+00 4.205e-01 0.000e+00
1.170e+00 4.175e-01 0.000e+00
1.180e+00 4.144e-01 0.000e+00
1.190e+00 4.113e-01 0.000e+00
1.200e+00 4.081e-01 0.000e+00
1.210e+00 4.050e-01 0.000e+00
1.220e+00 4.019e-01 0.000e+00
1.230e+00 3.989e-01 0.000e+00
1.240e+00 3.960e-01 0.000e+00
1.250e+00 3.931e-01 0.000e+00
1.260e+00 3.903e-01 0.000e+00
1.270e+00 3.875e-01 0.000e+00
1.280e+00 3.847e-01 0.000e+00
1.290e+00 3.820e-01 0.000e+00
1.300e+00 3.792e-01 0.000e+00
1.310e+00 3.764e-01 0.000e+00
1.320e+00 3.735e-01 0.000e+00
1.330e+00 3.705e-01 0.000e+00
1.340e+00 3.674e-01 0.000e+00
1.350e+00 3.643e-01 0.000e+00
1.360e+00 3.611e-01 0.000e+00
1.370e+00 3.579e-01 0.000e+00
1.380e+00 3.548e-01 0.000e+00
1.390e+00 3.517e-01 0.000e+00
1.400e+00 3.489e-01 0.000e+00
1.410e+00 3.461e-01 0.000e+00
1.420e+00 3.435e-01 0.000e+00
1.430e+00 3.410e-01 0.000e+00
1.440e+00 3.386e-01 0.000e+00
1.450e+00 3.363e-01 0.000e+00
1.460e+00 3.340e-01 0.000e+00
1.470e+00 3.318e-01 0.000e+00
1.480e+00 3.297e-01 0.000e+00
1.490e+00 3.276e-01 0.000e+00
1.500e+00 3.255e-01 0.000e+00
1.510e+00 3.235e-01 0.000e+00
1.520e+00 3.216e-01 0.000e+00
1.530e+00 3.197e-01 0.000e+00
1.540e+00 3.180e-01 0.000e+00
1.550e+00 3.164e-01 0.000e+00
1.560e+00 3.149e-01 0.000e+00
1.570e+00 3.136e-01 0.000e+00
1.580e+00 3.124e-01 0.000e+00
1.590e+00 3.112e-01 0.000e+00
1.600e+00 3.099e-01 0.000e+00
1.610e+00 3.085e-01 0.000e+00
1.620e+00 3.068e-01 0.000e+00
1.630e+00 3.050e-01 0.000e+00
1.640e+00 3.031e-01 0.000e+00
1.650e+00 3.011e-01 0.000e+00
1.660e+00 2.991e-01 0.000e+00
1.670e+00 2.972e-01 0.000e+00
1.680e+00 2.953e-01 0.000e+00
1.690e+00 2.936e-01 0.000e+00
1.700e+00 2.919e-01 0.000e+00
1.710e+00 2.903e-01 0.000e+00
1.720e+00 2.887e-01 0.000e+00
1.730e+00 2.873e-01 0.000e+00
1.740e+00 2.859e-01 0.000e+00
1.750e+00 2.846e-01 0.000e+00
1.760e+00 2.833e-01 0.000e+00
1.770e+00 2.821e-01 0.000e+00
1.780e+00 2.809e-01 0.000e+00
1.790e+00 2.798e-01 0.000e+00
1.800e+00 2.787e-01 0.000e+00
1.810e+00 2.776e-01 0.000e+00
1.820e+00 2.765e-01 0.000e+00
1.830e+00 2.754e-01 0.000e+00
1.840e+00 2.743e-01 0.000e+00
1.850e+00 2.732e-01 0.000e+00
1.860e+00 2.719e-01 0.000e+00
1.870e+00 2.705e-01 0.000e+00
1.880e+00 2.690e-01 0.000e+00
1.890e+00 2.674e-01 0.000e+00
1.900e+00 2.657e-01 0.000e+00
1.910e+00 2.639e-01 0.000e+00
1.920e+00 2.621e-01 0.000e+00
1.930e+00 2.602e-01 0.000e+00
1.940e+00 2.583e-01 0.000e+00
1.950e+00 2.564e-01 0.000e+00
1.960e+00 2.546e-01 0.000e+00
1.970e+00 2.527e-01 0.000e+00
1.980e+00 2.510e-01 0.000e+00
1.990e+00 2.492e-01 0.000e+00
2.000e+00 2.475e-01 0.000e+00
2.010e+00 2.458e-01 0.000e+00
2.020e+00 2.440e-01 0.000e+00
2.030e+00 2.423e-01 0.000e+00
2.040e+00 2.406e-01 0.000e+00
2.050e+00 2.390e-01 0.000e+00
2.060e+00 2.373e-01 0.000e+00
2.070e+00 2.358e-01 0.000e+00
2.080e+00 2.343e-01 0.000e+00
2.090e+00 2.329e-01 0.000e+00
2.100e+00 2.316e-01 0.000e+00
2.110e+00 2.305e-01 0.000e+00
2.120e+00 2.295e-01 0.000e+00
2.130e+00 2.286e-01 0.000e+00
2.140e+00 2.278e-01 0.000e+00
2.150e+00 2.270e-01 0.000e+00
2.160e+00 2.263e-01 0.000e+00
2.170e+00 2.255e-01 0.000e+00
2.180e+00 2.247e-01 0.000e+00
2.190e+00 2.237e-01 0.000e+00
2.200e+00 2.226e-01 0.000e+00
2.210e+00 2.213e-01 0.000e+00
2.220e+00 2.198e-01 0.000e+00
2.230e+00 2.183e-01 0.000e+00
2.240e+00 2.167e-01 0.000e+00
2.250e+00 2.151e-01 0.000e+00
2.260e+00 2.135e-01 0.000e+00
2.270e+00 2.119e-01 0.000e+00
2.280e+00 2.104e-01 0.000e+00
2.290e+00 2.089e-01 0.000e+00
2.300e+00 2.073e-01 0.000e+00
2.310e+00 2.058e-01 0.000e+00
2.320e+00 2.042e-01 0.000e+00
2.330e+00 2.026e-01 0.000e+00
2.340e+00 2.009e-01 0.000e+00
2.350e+00 1.990e-01 0.000e+00
2.360e+00 1.971e-01 0.000e+00
2.370e+00 1.950e-01 0.000e+00
2.380e+00 1.929e-01 0.000e+00
2.390e+00 1.906e-01 0.000e+00
2.400e+00 1.883e-01 0.000e+00
2.410e+00 1.859e-01 0.000e+00
2.420e+00 1.834e-01 0.000e+00
2.430e+00 1.809e-01 0.000e+00
2.440e+00 1.785e-01 0.000e+00
2.450e+00 1.763e-01 0.000e+00
2.460e+00 1.741e-01 0.000e+00
2.470e+00 1.722e-01 0.000e+00
2.480e+00 1.703e-01 0.000e+00
2.490e+00 1.686e-01 0.000e+00
2.500e+00 1.670e-01 0.000e+00
2.510e+00 1.656e-01 0.000e+00
2.520e+00 1.644e-01 0.000e+00
2.530e+00 1.633e-01 0.000e+00
2.540e+00 1.624e-01 0.000e+00
2.550e+00 1.617e-01 0.000e+00
2.560e+00 1.612e-01 0.000e+00
2.570e+00 1.610e-01 0.000e+00
2.580e+00 1.610e-01 0.000e+00
2.590e+00 1.611e-01 0.000e+00
2.600e+00 1.614e-01 0.000e+00
2.610e+00 1.619e-01 0.000e+00
2.620e+00 1.624e-01 0.000e+00
2.630e+00 1.630e-01 0.000e+00
2.640e+00 1.636e-01 0.000e+00
2.650e+00 1.642e-01 0.000e+00
2.660e+00 1.647e-01 0.000e+00
2.670e+00 1.652e-01 0.000e+00
2.680e+00 1.655e-01 0.000e+00
2.690e+00 1.656e-01 0.000e+00
2.700e+00 1.655e-01 0.000e+00
2.710e+00 1.651e-01 0.000e+00
2.720e+00 1.645e-01 0.000e+00
2.730e+00 1.637e-01 0.000e+00
2.740e+00 1.626e-01 0.000e+00
2.750e+00 1.614e-01 0.000e+00
2.760e+00 1.602e-01 0.000e+00
2.770e+00 1.589e-01 0.000e+00
2.780e+00 1.576e-01 0.000e+00
2.790e+00 1.563e-01 0.000e+00
2.800e+00 1.550e-01 0.000e+00
2.810e+00 1.538e-01 0.000e+00
2.820e+00 1.527e-01 0.000e+00
2.830e+00 1.516e-01 0.000e+00
2.840e+00 1.506e-01 0.000e+00
2.850e+00 1.496e-01 0.000e+00
2.860e+00 1.487e-01 0.000e+00
2.870e+00 1.478e-01 0.000e+00
2.880e+00 1.468e-01 0.000e+00
2.890e+00 1.458e-01 0.000e+00
2.900e+00 1.447e-01 0.000e+00
2.910e+00 1.435e-01 0.000e+00
2.920e+00 1.423e-01 0.000e+00
2.930e+00 1.410e-01 0.000e+00
2.940e+00 1.398e-01 0.000e+00
2.950e+00 1.385e-01 0.000e+00
2.960e+00 1.373e-01 0.000e+00
2.970e+00 1.361e-01 0.000e+00
2.980e+00 1.350e-01 0.000e+00
2.990e+00 1.340e-01 0.000e+00
3.000e+00 1.331e-01 0.000e+00
3.010e+00 1.323e-01 0.000e+00
3.020e+00 1.316e-01 0.000e+00
3.030e+00 1.310e-01 0.000e+00
3.040e+00 1.305e-01 0.000e+00
3.050e+00 1.302e-01 0.000e+00
3.060e+00 1.299e-01 0.000e+00
3.070e+00 1.297e-01 0.000e+00
3.080e+00 1.296e-01 0.000e+00
3.090e+00 1.295e-01 0.000e+00
3.100e+00 1.295e-01 0.000e+00
3.110e+00 1.295e-01 0.000e+00
3.120e+00 1.296e-01 0.000e+00
3.130e+00 1.296e-01 0.000e+00
3.140e+00 1.297e-01 0.000e+00
3.150e+00 1.296e-01 0.000e+00
3.160e+00 1.295e-01 0.000e+00
3.170e+00 1.292e-01 0.000e+00
3.180e+00 1.289e-01 0.000e+00
3.190e+00 1.284e-01 0.000e+00
3.200e+00 1.279e-01 0.000e+00
3.210e+00 1.273e-01 0.000e+00
3.220e+00 1.266e-01 0.000e+00
3.230e+00 1.258e-01 0.000e+00
3.240e+00 1.251e-01 0.000e+00
3.250e+00 1.243e-01 0.000e+00
3.260e+00 1.235e-01 0.000e+00
3.270e+00 1.228e-01 0.000e+00
3.280e+00 1.220e-01 0.000e+00
3.290e+00 1.212e-01 0.000e+00
3.300e+00 1.204e-01 0.000e+00
3.310e+00 1.196e-01 0.000e+00
3.320e+00 1.188e-01 0.000e+00
3.330e+00 1.180e-01 0.000e+00
3.340e+00 1.172e-01 0.000e+00
3.350e+00 1.164e-01 0.000e+00
3.360e+00 1.156e-01 0.000e+00
3.370e+00 1.149e-01 0.000e+00
3.380e+00 1.141e-01 0.000e+00
3.390e+00 1.134e-01 0.000e+00
3.400e+00 1.127e-01 0.000e+00
3.410e+00 1.120e-01 0.000e+00
3.420e+00 1.113e-01 0.000e+00
3.430e+00 1.106e-01 0.000e+00
3.440e+00 1.099e-01 0.000e+00
3.450e+00 1.091e-01 0.000e+00
3.460e+00 1.084e-01 0.000e+00
3.470e+00 1.077e-01 0.000e+00
3.480e+00 1.070e-01 0.000e+00
3.490e+00 1.063e-01 0.000e+00
3.500e+00 1.058e-01 0.000e+00
3.510e+00 1.052e-01 0.000e+00
3.520e+00 1.047e-01 0.000e+00
3.530e+00 1.043e-01 0.000e+00
3.540e+00 1.039e-01 0.000e+00
3.550e+00 1.036e-01 0.000e+00
3.560e+00 1.033e-01 0.000e+00
3.570e+00 1.030e-01 0.000e+00
3.580e+00 1.027e-01 0.000e+00
3.590e+00 1.024e-01 0.000e+00
3.600e+00 1.021e-01 0.000e+00
3.610e+00 1.018e-01 0.000e+00
3.620e+00 1.016e-01 0.000e+00
3.630e+00 1.013e-01 0.000e+00
3.640e+00 1.011e-01 0.000e+00
3.650e+00 1.009e-01 0.000e+00
3.660e+00 1.006e-01 0.000e+00
3.670e+00 1.004e-01 0.000e+00
3.680e+00 1.002e-01 0.000e+00
3.690e+00 9.994e-02 0.000e+00
3.700e+00 9.975e-02 0.000e+00
3.710e+00 9.961e-02 0.000e+00
3.720e+00 9.959e-02 0.000e+00
3.730e+00 9.967e-02 0.000e+00
3.740e+00 9.985e-02 0.000e+00
3.750e+00 1.001e-01 0.000e+00
3.760e+00 1.004e-01 0.000e+00
3.770e+00 1.007e-01 0.000e+00
3.780e+00 1.010e-01 0.000e+00
3.790e+00 1.012e-01 0.000e+00
3.800e+00 1.015e-01 0.000e+00
3.810e+00 1.017e-01 0.000e+00
3.820e+00 1.020e-01 0.000e+00
3.830e+00 1.022e-01 0.000e+00
3.840e+00 1.024e-01 0.000e+00
3.850e+00 1.025e-01 0.000e+00
3.860e+00 1.027e-01 0.000e+00
3.870e+00 1.027e-01 0.000e+00
3.880e+00 1.027e-01 0.000e+00
3.890e+00 1.027e-01 0.000e+00
3.900e+00 1.025e-01 0.000e+00
3.910e+00 1.023e-01 0.000e+00
3.920e+00 1.021e-01 0.000e+00
3.930e+00 1.018e-01 0.000e+00
3.940e+00 1.014e-01 0.000e+00
3.950e+00 1.010e-01 0.000e+00
3.960e+00 1.006e-01 0.000e+00
3.970e+00 1.001e-01 0.000e+00
3.980e+00 9.957e-02 0.000e+00
3.990e+00 9.896e-02 0.000e+00
4.000e+00 9.829e-02 0.000e+00
4.010e+00 9.758e-02 0.000e+00
4.020e+00 9.685e-02 0.000e+00
4.030e+00 9.611e-02 0.000e+00
4.040e+00 9.538e-02 0.000e+00
4.050e+00 9.466e-02 0.000e+00
4.060e+00 9.393e-02 0.000e+00
4.070e+00 9.318e-02 0.000e+00
4.080e+00 9.237e-02 0.000e+00
4.090e+00 9.149e-02 0.000e+00
4.100e+00 9.051e-02 0.000e+00
4.110e+00 8.943e-02 0.000e+00
4.120e+00 8.825e-02 0.000e+00
4.130e+00 8.697e-02 0.000e+00
4.140e+00 8.563e-02 0.000e+00
4.150e+00 8.424e-02 0.000e+00
4.160e+00 8.283e-02 0.000e+00
4.170e+00 8.144e-02 0.000e+00
4.180e+00 8.007e-02 0.000e+00
4.190e+00 7.874e-02 0.000e+00
4.200e+00 7.746e-02 0.000e+00
4.210e+00 7.623e-02 0.000e+00
4.220e+00 7.508e-02 0.000e+00
4.230e+00 7.402e-02 0.000e+00
4.240e+00 7.307e-02 0.000e+00
4.250e+00 7.224e-02 0.000e+00
4.260e+00 7.154e-02 0.000e+00
4.270e+00 7.097e-02 0.000e+00
4.280e+00 7.055e-02 0.000e+00
4.290e+00 7.026e-02 0.000e+00
4.300e+00 7.008e-02 0.000e+00
4.310e+00 6.999e-02 0.000e+00
4.320e+00 6.999e-02 0.000e+00
4.330e+00 7.007e-02 0.000e+00
4.340e+00 7.022e-02 0.000e+00
4.350e+00 7.042e-02 0.000e+00
4.360e+00 7.063e-02 0.000e+00
4.370e+00 7.084e-02 0.000e+00
4.380e+00 7.102e-02 0.000e+00
4.390e+00 7.118e-02 0.000e+00
4.400e+00 7.130e-02 0.000e+00
4.410e+00 7.141e-02 0.000e+00
4.420e+00 7.152e-02 0.000e+00
4.430e+00 7.163e-02 0.000e+00
4.440e+00 7.175e-02 0.000e+00
4.450e+00 7.189e-02 0.000e+00
4.460e+00 7.204e-02 0.000e+00
4.470e+00 7.219e-02 0.000e+00
4.480e+00 7.232e-02 0.000e+00
4.490e+00 7.241e-02 0.000e+00
4.500e+00 7.245e-02 0.000e+00
4.510e+00 7.242e-02 0.000e+00
4.520e+00 7.232e-02 0.000e+00
4.530e+00 7.216e-02 0.000e+00
4.540e+00 7.195e-02 0.000e+00
4.550e+00 7.168e-02 0.000e+00
4.560e+00 7.138e-02 0.000e+00
4.570e+00 7.104e-02 0.000e+00
4.580e+00 7.066e-02 0.000e+00
4.590e+00 7.027e-02 0.000e+00
4.600e+00 6.989e-02 0.000e+00
4.610e+00 6.953e-02 0.000e+00
4.620e+00 6.918e-02 0.000e+00
4.630e+00 6.882e-02 0.000e+00
4.640e+00 6.843e-02 0.000e+00
4.650e+00 6.798e-02 0.000e+00
4.660e+00 6.746e-02 0.000e+00
4.670e+00 6.687e-02 0.000e+00
4.680e+00 6.622e-02 0.000e+00
4.690e+00 6.553e-02 0.000e+00
4.700e+00 6.481e-02 0.000e+00
4.710e+00 6.408e-02 0.000e+00
4.720e+00 6.336e-02 0.000e+00
4.730e+00 6.267e-02 0.000e+00
4.740e+00 6.200e-02 0.000e+00
4.750e+00 6.136e-02 0.000e+00
4.760e+00 6.075e-02 0.000e+00
4.770e+00 6.014e-02 0.000e+00
4.780e+00 5.954e-02 0.000e+00
4.790e+00 5.895e-02 0.000e+00
4.800e+00 5.835e-02 0.000e+00
4.810e+00 5.778e-02 0.000e+00
4.820e+00 5.723e-02 0.000e+00
4.830e+00 5.672e-02 0.000e+00
4.840e+00 5.628e-02 0.000e+00
4.850e+00 5.592e-02 0.000e+00
4.860e+00 5.565e-02 0.000e+00
4.870e+00 5.545e-02 0.000e+00
4.880e+00 5.533e-02 0.000e+00
4.890e+00 5.525e-02 0.000e+00
4.900e+00 5.521e-02 0.000e+00
4.910e+00 5.519e-02 0.000e+00
4.920e+00 5.518e-02 0.000e+00
4.930e+00 5.517e-02 0.000e+00
4.940e+00 5.517e-02 0.000e+00
4.950e+00 5.517e-02 0.000e+00
4.960e+00 5.516e-02 0.000e+00
4.970e+00 5.514e-02 0.000e+00
4.980e+00 5.510e-02 0.000e+00
4.990e+00 5.504e-02 0.000e+00
5.000e+00 5.497e-02 0.000e+00
5.010e+00 5.490e-02 0.000e+00
5.020e+00 5.483e-02 0.000e+00
5.030e+00 5.477e-02 0.000e+00
5.040e+00 5.472e-02 0.000e+00
5.050e+00 5.467e-02 0.000e+00
5.060e+00 5.464e-02 0.000e+00
5.070e+00 5.460e-02 0.000e+00
5.080e+00 5.457e-02 0.000e+00
5.090e+00 5.455e-02 0.000e+00
5.100e+00 5.456e-02 0.000e+00
5.110e+00 5.461e-02 0.000e+00
5.120e+00 5.471e-02 0.000e+00
5.130e+00 5.486e-02 0.000e+00
5.140e+00 5.504e-02 0.000e+00
5.150e+00 5.523e-02 0.000e+00
5.160e+00 5.541e-02 0.000e+00
5.170e+00 5.557e-02 0.000e+00
5.180e+00 5.570e-02 0.000e+00
5.190e+00 5.579e-02 0.000e+00
5.200e+00 5.587e-02 0.000e+00
5.210e+00 5.591e-02 0.000e+00
5.220e+00 5.592e-02 0.000e+00
5.230e+00 5.586e-02 0.000e+00
5.240e+00 5.571e-02 0.000e+00
5.250e+00 5.548e-02 0.000e+00
5.260e+00 5.515e-02 0.000e+00
5.270e+00 5.473e-02 0.000e+00
5.280e+00 5.425e-02 0.000e+00
5.290e+00 5.371e-02 0.000e+00
5.300e+00 5.315e-02 0.000e+00
5.310e+00 5.257e-02 0.000e+00
5.320e+00 5.200e-02 0.000e+00
5.330e+00 5.150e-02 0.000e+00
5.340e+00 5.108e-02 0.000e+00
5.350e+00 5.075e-02 0.000e+00
5.360e+00 5.049e-02 0.000e+00
5.370e+00 5.027e-02 0.000e+00
5.380e+00 5.007e-02 0.000e+00
5.390e+00 4.985e-02 0.000e+00
5.400e+00 4.959e-02 0.000e+00
5.410e+00 4.929e-02 0.000e+00
5.420e+00 4.895e-02 0.000e+00
5.430e+00 4.858e-02 0.000e+00
5.440e+00 4.823e-02 0.000e+00
5.450e+00 4.791e-02 0.000e+00
5.460e+00 4.765e-02 0.000e+00
5.470e+00 4.744e-02 0.000e+00
5.480e+00 4.729e-02 0.000e+00
5.490e+00 4.716e-02 0.000e+00
5.500e+00 4.705e-02 0.000e+00
5.510e+00 4.692e-02 0.000e+00
5.520e+00 4.678e-02 0.000e+00
5.530e+00 4.660e-02 0.000e+00
5.540e+00 4.638e-02 0.000e+00
5.550e+00 4.614e-02 0.000e+00
5.560e+00 4.586e-02 0.000e+00
5.570e+00 4.556e-02 0.000e+00
5.580e+00 4.525e-02 0.000e+00
5.590e+00 4.494e-02 0.000e+00
5.600e+00 4.465e-02 0.000e+00
5.610e+00 4.438e-02 0.000e+00
5.620e+00 4.416e-02 0.000e+00
5.630e+00 4.399e-02 0.000e+00
5.640e+00 4.389e-02 0.000e+00
5.650e+00 4.384e-02 0.000e+00
5.660e+00 4.385e-02 0.000e+00
5.670e+00 4.392e-02 0.000e+00
5.680e+00 4.404e-02 0.000e+00
5.690e+00 4.421e-02 0.000e+00
5.700e+00 4.441e-02 0.000e+00
5.710e+00 4.464e-02 0.000e+00
5.720e+00 4.492e-02 0.000e+00
5.730e+00 4.524e-02 0.000e+00
5.740e+00 4.562e-02 0.000e+00
5.750e+00 4.604e-02 0.000e+00
5.760e+00 4.650e-02 0.000e+00
5.770e+00 4.700e-02 0.000e+00
5.780e+00 4.750e-02 0.000e+00
5.790e+00 4.798e-02 0.000e+00
5.800e+00 4.841e-02 0.000e+00
5.810e+00 4.879e-02 0.000e+00
5.820e+00 4.909e-02 0.000e+00
5.830e+00 4.932e-02 0.000e+00
5.840e+00 4.948e-02 0.000e+00
5.850e+00 4.959e-02 0.000e+00
5.860e+00 4.966e-02 0.000e+00
5.870e+00 4.969e-02 0.000e+00
5.880e+00 4.969e-02 0.000e+00
5.890e+00 4.964e-02 0.000e+00
5.900e+00 4.953e-02 0.000e+00
5.910e+00 4.935e-02 0.000e+00
5.920e+00 4.908e-02 0.000e+00
5.930e+00 4.873e-02 0.000e+00
5.940e+00 4.829e-02 0.000e+00
5.950e+00 4.778e-02 0.000e+00
5.960e+00 4.723e-02 0.000e+00
5.970e+00 4.666e-02 0.000e+00
5.980e+00 4.609e-02 0.000e+00
5.990e+00 4.555e-02 0.000e+00
6.000e+00 4.503e-02 0.000e+00
6.010e+00 4.453e-02 0.000e+00
6.020e+00 4.403e-02 0.000e+00
6.030e+00 4.352e-02 0.000e+00
6.040e+00 4.301e-02 0.000e+00
6.050e+00 4.249e-02 0.000e+00
6.060e+00 4.200e-02 0.000e+00
6.070e+00 4.153e-02 0.000e+00
6.080e+00 4.109e-02 0.000e+00
6.090e+00 4.068e-02 0.000e+00
6.100e+00 4.029e-02 0.000e+00
6.110e+00 3.989e-02 0.000e+00
6.120e+00 3.948e-02 0.000e+00
6.130e+00 3.904e-02 0.000e+00
6.140e+00 3.858e-02 0.000e+00
6.150e+00 3.811e-02 0.000e+00
6.160e+00 3.766e-02 0.000e+00
6.170e+00 3.724e-02 0.000e+00
6.180e+00 3.685e-02 0.000e+00
6.190e+00 3.650e-02 0.000e+00
6.200e+00 3.620e-02 0.000e+00
6.210e+00 3.597e-02 0.000e+00
6.220e+00 3.582e-02 0.000e+00
6.230e+00 3.577e-02 0.000e+00
6.240e+00 3.580e-02 0.000e+00
6.250e+00 3.590e-02 0.000e+00
6.260e+00 3.603e-02 0.000e+00
6.270e+00 3.618e-02 0.000e+00
6.280e+00 3.631e-02 0.000e+00
6.290e+00 3.640e-02 0.000e+00
6.300e+00 3.645e-02 0.000e+00
6.310e+00 3.645e-02 0.000e+00
6.320e+00 3.638e-02 0.000e+00
6.330e+00 3.624e-02 0.000e+00
6.340e+00 3.601e-02 0.000e+00
6.350e+00 3.570e-02 0.000e+00
6.360e+00 3.530e-02 0.000e+00
6.370e+00 3.484e-02 0.000e+00
6.380e+00 3.432e-02 0.000e+00
6.390e+00 3.377e-02 0.000e+00
6.400e+00 3.321e-02 0.000e+00
6.410e+00 3.266e-02 0.000e+00
6.420e+00 3.216e-02 0.000e+00
6.430e+00 3.171e-02 0.000e+00
6.440e+00 3.134e-02 0.000e+00
6.450e+00 3.104e-02 0.000e+00
6.460e+00 3.082e-02 0.000e+00
6.470e+00 3.069e-02 0.000e+00
6.480e+00 3.064e-02 0.000e+00
6.490e+00 3.067e-02 0.000e+00
6.500e+00 3.078e-02 0.000e+00
6.510e+00 3.095e-02 0.000e+00
6.520e+00 3.118e-02 0.000e+00
6.530e+00 3.146e-02 0.000e+00
6.540e+00 3.177e-02 0.000e+00
6.550e+00 3.212e-02 0.000e+00
6.560e+00 3.248e-02 0.000e+00
6.570e+00 3.284e-02 0.000e+00
6.580e+00 3.320e-02 0.000e+00
6.590e+00 3.353e-02 0.000e+00
6.600e+00 3.382e-02 0.000e+00
6.610e+00 3.408e-02 0.000e+00
6.620e+00 3.430e-02 0.000e+00
6.630e+00 3.448e-02 0.000e+00
6.640e+00 3.461e-02 0.000e+00
