# Time (ps)      real(F_1)      im(F_1)
0.000e+00 1.000e+00 0.000e+00
1.000e-02 9.998e-01 -9.476e-04
2.000e-02 9.988e-01 -1.906e-03
3.000e-02 9.969e-01 -2.863e-03
4.000e-02 9.940e-01 -3.799e-03
5.000e-02 9.902e-01 -4.699e-03
6.000e-02 9.853e-01 -5.554e-03
7.000e-02 9.794e-01 -6.364e-03
8.000e-02 9.725e-01 -7.135e-03
9.000e-02 9.647e-01 -7.872e-03
1.000e-01 9.562e-01 -8.575e-03
1.100e-01 9.472e-01 -9.236e-03
1.200e-01 9.377e-01 -9.845e-03
1.300e-01 9.280e-01 -1.039e-02
1.400e-01 9.180e-01 -1.085e-02
1.500e-01 9.078e-01 -1.124e-02
1.600e-01 8.973e-01 -1.154e-02
1.700e-01 8.865e-01 -1.176e-02
1.800e-01 8.755e-01 -1.189e-02
1.900e-01 8.641e-01 -1.194e-02
2.000e-01 8.525e-01 -1.190e-02
2.100e-01 8.408e-01 -1.178e-02
2.200e-01 8.290e-01 -1.160e-02
2.300e-01 8.172e-01 -1.139e-02
2.400e-01 8.055e-01 -1.120e-02
2.500e-01 7.939e-01 -1.105e-02
2.600e-01 7.825e-01 -1.095e-02
2.700e-01 7.713e-01 -1.092e-02
2.800e-01 7.602e-01 -1.096e-02
2.900e-01 7.492e-01 -1.106e-02
3.000e-01 7.383e-01 -1.122e-02
3.100e-01 7.275e-01 -1.141e-02
3.200e-01 7.167e-01 -1.164e-02
3.300e-01 7.061e-01 -1.187e-02
3.400e-01 6.955e-01 -1.210e-02
3.500e-01 6.849e-01 -1.231e-02
3.600e-01 6.744e-01 -1.247e-02
3.700e-01 6.639e-01 -1.257e-02
3.800e-01 6.535e-01 -1.262e-02
3.900e-01 6.431e-01 -1.259e-02
4.000e-01 6.328e-01 -1.248e-02
4.100e-01 6.226e-01 -1.229e-02
4.200e-01 6.125e-01 -1.203e-02
4.300e-01 6.025e-01 -1.169e-02
4.400e-01 5.927e-01 -1.129e-02
4.500e-01 5.831e-01 -1.084e-02
4.600e-01 5.736e-01 -1.037e-02
4.700e-01 5.644e-01 -9.890e-03
4.800e-01 5.553e-01 -9.412e-03
4.900e-01 5.464e-01 -8.947e-03
5.000e-01 5.378e-01 -8.499e-03
5.100e-01 5.294e-01 -8.073e-03
5.200e-01 5.212e-01 -7.667e-03
5.300e-01 5.132e-01 -7.283e-03
5.400e-01 5.055e-01 -6.921e-03
5.500e-01 4.980e-01 -6.582e-03
5.600e-01 4.906e-01 -6.265e-03
5.700e-01 4.835e-01 -5.967e-03
5.800e-01 4.765e-01 -5.683e-03
5.900e-01 4.697e-01 -5.407e-03
6.000e-01 4.631e-01 -5.131e-03
6.100e-01 4.565e-01 -4.851e-03
6.200e-01 4.502e-01 -4.562e-03
6.300e-01 4.439e-01 -4.261e-03
6.400e-01 4.377e-01 -3.948e-03
6.500e-01 4.317e-01 -3.622e-03
6.600e-01 4.257e-01 -3.280e-03
6.700e-01 4.198e-01 -2.916e-03
6.800e-01 4.139e-01 -2.521e-03
6.900e-01 4.082e-01 -2.081e-03
7.000e-01 4.026e-01 -1.582e-03
7.100e-01 3.972e-01 -1.010e-03
7.200e-01 3.918e-01 -3.553e-04
7.300e-01 3.867e-01 3.859e-04
7.400e-01 3.816e-01 1.210e-03
7.500e-01 3.767e-01 2.108e-03
7.600e-01 3.720e-01 3.061e-03
7.700e-01 3.674e-01 4.046e-03
7.800e-01 3.629e-01 5.037e-03
7.900e-01 3.586e-01 6.009e-03
8.000e-01 3.543e-01 6.939e-03
8.100e-01 3.501e-01 7.808e-03
8.200e-01 3.459e-01 8.608e-03
8.300e-01 3.419e-01 9.335e-03
8.400e-01 3.378e-01 9.991e-03
8.500e-01 3.338e-01 1.058e-02
8.600e-01 3.298e-01 1.111e-02
8.700e-01 3.258e-01 1.157e-02
8.800e-01 3.219e-01 1.197e-02
8.900e-01 3.180e-01 1.231e-02
9.000e-01 3.141e-01 1.257e-02
9.100e-01 3.103e-01 1.277e-02
9.200e-01 3.064e-01 1.289e-02
9.300e-01 3.025e-01 1.296e-02
9.400e-01 2.986e-01 1.299e-02
9.500e-01 2.947e-01 1.299e-02
9.600e-01 2.908e-01 1.298e-02
9.700e-01 2.868e-01 1.296e-02
9.800e-01 2.829e-01 1.296e-02
9.900e-01 2.789e-01 1.297e-02
1.000e+00 2.749e-01 1.300e-02
1.010e+00 2.710e-01 1.306e-02
1.020e+00 2.671e-01 1.314e-02
1.030e+00 2.633e-01 1.325e-02
1.040e+00 2.595e-01 1.338e-02
1.050e+00 2.559e-01 1.354e-02
1.060e+00 2.523e-01 1.372e-02
1.070e+00 2.487e-01 1.392e-02
1.080e+00 2.452e-01 1.414e-02
1.090e+00 2.417e-01 1.437e-02
1.100e+00 2.382e-01 1.459e-02
1.110e+00 2.346e-01 1.482e-02
1.120e+00 2.310e-01 1.503e-02
1.130e+00 2.274e-01 1.523e-02
1.140e+00 2.237e-01 1.541e-02
1.150e+00 2.200e-01 1.557e-02
1.160e+00 2.162e-01 1.571e-02
1.170e+00 2.125e-01 1.581e-02
1.180e+00 2.087e-01 1.587e-02
1.190e+00 2.050e-01 1.589e-02
1.200e+00 2.013e-01 1.586e-02
1.210e+00 1.977e-01 1.579e-02
1.220e+00 1.942e-01 1.567e-02
1.230e+00 1.908e-01 1.552e-02
1.240e+00 1.874e-01 1.532e-02
1.250e+00 1.840e-01 1.508e-02
1.260e+00 1.807e-01 1.479e-02
1.270e+00 1.775e-01 1.444e-02
1.280e+00 1.743e-01 1.403e-02
1.290e+00 1.711e-01 1.355e-02
1.300e+00 1.679e-01 1.299e-02
1.310e+00 1.649e-01 1.237e-02
1.320e+00 1.618e-01 1.172e-02
1.330e+00 1.590e-01 1.105e-02
1.340e+00 1.562e-01 1.042e-02
1.350e+00 1.537e-01 9.856e-03
1.360e+00 1.513e-01 9.385e-03
1.370e+00 1.490e-01 9.014e-03
1.380e+00 1.469e-01 8.735e-03
1.390e+00 1.449e-01 8.525e-03
1.400e+00 1.430e-01 8.361e-03
1.410e+00 1.412e-01 8.222e-03
1.420e+00 1.394e-01 8.093e-03
1.430e+00 1.377e-01 7.966e-03
1.440e+00 1.360e-01 7.835e-03
1.450e+00 1.344e-01 7.696e-03
1.460e+00 1.328e-01 7.544e-03
1.470e+00 1.312e-01 7.377e-03
1.480e+00 1.296e-01 7.194e-03
1.490e+00 1.281e-01 6.998e-03
1.500e+00 1.266e-01 6.787e-03
1.510e+00 1.250e-01 6.563e-03
1.520e+00 1.234e-01 6.325e-03
1.530e+00 1.219e-01 6.075e-03
1.540e+00 1.203e-01 5.814e-03
1.550e+00 1.187e-01 5.544e-03
1.560e+00 1.171e-01 5.266e-03
1.570e+00 1.155e-01 4.978e-03
1.580e+00 1.140e-01 4.680e-03
1.590e+00 1.124e-01 4.367e-03
1.600e+00 1.109e-01 4.038e-03
1.610e+00 1.095e-01 3.690e-03
1.620e+00 1.080e-01 3.321e-03
1.630e+00 1.066e-01 2.933e-03
1.640e+00 1.052e-01 2.524e-03
1.650e+00 1.038e-01 2.096e-03
1.660e+00 1.024e-01 1.648e-03
1.670e+00 1.010e-01 1.181e-03
1.680e+00 9.956e-02 6.942e-04
1.690e+00 9.816e-02 1.897e-04
1.700e+00 9.675e-02 -3.304e-04
1.710e+00 9.534e-02 -8.628e-04
1.720e+00 9.393e-02 -1.404e-03
1.730e+00 9.250e-02 -1.951e-03
1.740e+00 9.106e-02 -2.500e-03
1.750e+00 8.960e-02 -3.049e-03
1.760e+00 8.812e-02 -3.596e-03
1.770e+00 8.662e-02 -4.143e-03
1.780e+00 8.510e-02 -4.687e-03
1.790e+00 8.358e-02 -5.229e-03
1.800e+00 8.207e-02 -5.767e-03
1.810e+00 8.059e-02 -6.300e-03
1.820e+00 7.916e-02 -6.822e-03
1.830e+00 7.780e-02 -7.329e-03
1.840e+00 7.654e-02 -7.815e-03
1.850e+00 7.539e-02 -8.274e-03
1.860e+00 7.436e-02 -8.702e-03
1.870e+00 7.344e-02 -9.095e-03
1.880e+00 7.263e-02 -9.447e-03
1.890e+00 7.192e-02 -9.751e-03
1.900e+00 7.130e-02 -1.000e-02
1.910e+00 7.075e-02 -1.019e-02
1.920e+00 7.024e-02 -1.030e-02
1.930e+00 6.975e-02 -1.034e-02
1.940e+00 6.927e-02 -1.030e-02
1.950e+00 6.878e-02 -1.020e-02
1.960e+00 6.828e-02 -1.005e-02
1.970e+00 6.777e-02 -9.859e-03
1.980e+00 6.725e-02 -9.645e-03
1.990e+00 6.670e-02 -9.421e-03
2.000e+00 6.613e-02 -9.199e-03
2.010e+00 6.551e-02 -8.987e-03
2.020e+00 6.485e-02 -8.785e-03
2.030e+00 6.413e-02 -8.592e-03
2.040e+00 6.334e-02 -8.400e-03
2.050e+00 6.249e-02 -8.200e-03
2.060e+00 6.159e-02 -7.989e-03
2.070e+00 6.066e-02 -7.769e-03
2.080e+00 5.972e-02 -7.552e-03
2.090e+00 5.881e-02 -7.349e-03
2.100e+00 5.792e-02 -7.175e-03
2.110e+00 5.708e-02 -7.037e-03
2.120e+00 5.628e-02 -6.943e-03
2.130e+00 5.552e-02 -6.895e-03
2.140e+00 5.481e-02 -6.894e-03
2.150e+00 5.411e-02 -6.938e-03
2.160e+00 5.343e-02 -7.024e-03
2.170e+00 5.275e-02 -7.144e-03
2.180e+00 5.207e-02 -7.290e-03
2.190e+00 5.136e-02 -7.454e-03
2.200e+00 5.065e-02 -7.629e-03
2.210e+00 4.992e-02 -7.811e-03
2.220e+00 4.919e-02 -7.994e-03
2.230e+00 4.847e-02 -8.173e-03
2.240e+00 4.779e-02 -8.344e-03
2.250e+00 4.716e-02 -8.500e-03
2.260e+00 4.658e-02 -8.634e-03
2.270e+00 4.608e-02 -8.741e-03
2.280e+00 4.564e-02 -8.821e-03
2.290e+00 4.527e-02 -8.876e-03
2.300e+00 4.494e-02 -8.911e-03
2.310e+00 4.465e-02 -8.931e-03
2.320e+00 4.440e-02 -8.942e-03
2.330e+00 4.416e-02 -8.947e-03
2.340e+00 4.393e-02 -8.946e-03
2.350e+00 4.371e-02 -8.941e-03
2.360e+00 4.349e-02 -8.933e-03
2.370e+00 4.327e-02 -8.927e-03
2.380e+00 4.305e-02 -8.927e-03
2.390e+00 4.282e-02 -8.933e-03
2.400e+00 4.261e-02 -8.945e-03
2.410e+00 4.240e-02 -8.961e-03
2.420e+00 4.220e-02 -8.979e-03
2.430e+00 4.201e-02 -8.998e-03
2.440e+00 4.183e-02 -9.014e-03
2.450e+00 4.166e-02 -9.023e-03
2.460e+00 4.149e-02 -9.019e-03
2.470e+00 4.132e-02 -8.996e-03
2.480e+00 4.115e-02 -8.946e-03
2.490e+00 4.098e-02 -8.861e-03
2.500e+00 4.081e-02 -8.735e-03
2.510e+00 4.064e-02 -8.567e-03
2.520e+00 4.049e-02 -8.358e-03
2.530e+00 4.037e-02 -8.116e-03
2.540e+00 4.026e-02 -7.850e-03
2.550e+00 4.018e-02 -7.571e-03
2.560e+00 4.012e-02 -7.289e-03
2.570e+00 4.008e-02 -7.014e-03
2.580e+00 4.003e-02 -6.755e-03
2.590e+00 3.997e-02 -6.520e-03
2.600e+00 3.988e-02 -6.319e-03
2.610e+00 3.974e-02 -6.157e-03
2.620e+00 3.955e-02 -6.041e-03
2.630e+00 3.929e-02 -5.971e-03
2.640e+00 3.896e-02 -5.943e-03
2.650e+00 3.856e-02 -5.947e-03
2.660e+00 3.812e-02 -5.970e-03
2.670e+00 3.764e-02 -5.997e-03
2.680e+00 3.714e-02 -6.015e-03
2.690e+00 3.664e-02 -6.015e-03
2.700e+00 3.615e-02 -5.991e-03
2.710e+00 3.568e-02 -5.942e-03
2.720e+00 3.523e-02 -5.873e-03
2.730e+00 3.481e-02 -5.789e-03
2.740e+00 3.440e-02 -5.694e-03
2.750e+00 3.401e-02 -5.595e-03
2.760e+00 3.364e-02 -5.496e-03
2.770e+00 3.328e-02 -5.397e-03
2.780e+00 3.293e-02 -5.300e-03
2.790e+00 3.261e-02 -5.199e-03
2.800e+00 3.231e-02 -5.093e-03
2.810e+00 3.204e-02 -4.978e-03
2.820e+00 3.181e-02 -4.850e-03
2.830e+00 3.162e-02 -4.709e-03
2.840e+00 3.147e-02 -4.560e-03
2.850e+00 3.136e-02 -4.407e-03
2.860e+00 3.129e-02 -4.257e-03
2.870e+00 3.124e-02 -4.113e-03
2.880e+00 3.120e-02 -3.977e-03
2.890e+00 3.117e-02 -3.851e-03
2.900e+00 3.114e-02 -3.735e-03
2.910e+00 3.111e-02 -3.630e-03
2.920e+00 3.107e-02 -3.537e-03
2.930e+00 3.100e-02 -3.461e-03
2.940e+00 3.090e-02 -3.409e-03
2.950e+00 3.078e-02 -3.388e-03
2.960e+00 3.062e-02 -3.405e-03
2.970e+00 3.043e-02 -3.465e-03
2.980e+00 3.021e-02 -3.572e-03
2.990e+00 2.998e-02 -3.725e-03
3.000e+00 2.974e-02 -3.924e-03
3.010e+00 2.949e-02 -4.164e-03
3.020e+00 2.924e-02 -4.442e-03
3.030e+00 2.899e-02 -4.751e-03
3.040e+00 2.873e-02 -5.085e-03
3.050e+00 2.847e-02 -5.435e-03
3.060e+00 2.822e-02 -5.791e-03
3.070e+00 2.796e-02 -6.141e-03
3.080e+00 2.772e-02 -6.476e-03
3.090e+00 2.749e-02 -6.788e-03
3.100e+00 2.729e-02 -7.073e-03
3.110e+00 2.710e-02 -7.327e-03
3.120e+00 2.694e-02 -7.551e-03
3.130e+00 2.681e-02 -7.748e-03
3.140e+00 2.670e-02 -7.923e-03
3.150e+00 2.662e-02 -8.080e-03
3.160e+00 2.658e-02 -8.226e-03
3.170e+00 2.656e-02 -8.366e-03
3.180e+00 2.656e-02 -8.505e-03
3.190e+00 2.658e-02 -8.645e-03
3.200e+00 2.661e-02 -8.788e-03
3.210e+00 2.665e-02 -8.933e-03
3.220e+00 2.669e-02 -9.081e-03
3.230e+00 2.672e-02 -9.228e-03
3.240e+00 2.673e-02 -9.367e-03
3.250e+00 2.673e-02 -9.487e-03
3.260e+00 2.669e-02 -9.572e-03
3.270e+00 2.662e-02 -9.599e-03
3.280e+00 2.652e-02 -9.541e-03
3.290e+00 2.636e-02 -9.375e-03
3.300e+00 2.617e-02 -9.089e-03
3.310e+00 2.593e-02 -8.687e-03
3.320e+00 2.565e-02 -8.187e-03
3.330e+00 2.535e-02 -7.618e-03
3.340e+00 2.503e-02 -7.009e-03
3.350e+00 2.470e-02 -6.386e-03
3.360e+00 2.438e-02 -5.766e-03
3.370e+00 2.408e-02 -5.160e-03
3.380e+00 2.379e-02 -4.576e-03
3.390e+00 2.352e-02 -4.017e-03
3.400e+00 2.328e-02 -3.487e-03
3.410e+00 2.306e-02 -2.988e-03
3.420e+00 2.287e-02 -2.524e-03
3.430e+00 2.269e-02 -2.095e-03
3.440e+00 2.254e-02 -1.704e-03
3.450e+00 2.241e-02 -1.350e-03
3.460e+00 2.231e-02 -1.034e-03
3.470e+00 2.222e-02 -7.562e-04
3.480e+00 2.215e-02 -5.141e-04
3.490e+00 2.210e-02 -3.062e-04
3.500e+00 2.206e-02 -1.296e-04
3.510e+00 2.204e-02 1.901e-05
3.520e+00 2.203e-02 1.439e-04
3.530e+00 2.203e-02 2.491e-04
3.540e+00 2.203e-02 3.392e-04
3.550e+00 2.204e-02 4.180e-04
3.560e+00 2.204e-02 4.885e-04
3.570e+00 2.203e-02 5.523e-04
3.580e+00 2.200e-02 6.090e-04
3.590e+00 2.193e-02 6.571e-04
3.600e+00 2.183e-02 6.953e-04
3.610e+00 2.170e-02 7.232e-04
3.620e+00 2.153e-02 7.414e-04
3.630e+00 2.134e-02 7.506e-04
3.640e+00 2.113e-02 7.515e-04
3.650e+00 2.090e-02 7.450e-04
3.660e+00 2.065e-02 7.323e-04
3.670e+00 2.038e-02 7.149e-04
3.680e+00 2.010e-02 6.944e-04
3.690e+00 1.981e-02 6.716e-04
3.700e+00 1.951e-02 6.470e-04
3.710e+00 1.921e-02 6.207e-04
3.720e+00 1.889e-02 5.931e-04
3.730e+00 1.858e-02 5.649e-04
3.740e+00 1.827e-02 5.369e-04
3.750e+00 1.796e-02 5.093e-04
3.760e+00 1.764e-02 4.815e-04
3.770e+00 1.733e-02 4.515e-04
3.780e+00 1.702e-02 4.165e-04
3.790e+00 1.671e-02 3.735e-04
3.800e+00 1.640e-02 3.202e-04
3.810e+00 1.610e-02 2.558e-04
3.820e+00 1.580e-02 1.819e-04
3.830e+00 1.552e-02 1.022e-04
3.840e+00 1.524e-02 2.301e-05
3.850e+00 1.498e-02 -4.764e-05
3.860e+00 1.473e-02 -1.002e-04
3.870e+00 1.452e-02 -1.253e-04
3.880e+00 1.434e-02 -1.149e-04
3.890e+00 1.420e-02 -6.478e-05
3.900e+00 1.412e-02 2.531e-05
3.910e+00 1.411e-02 1.524e-04
3.920e+00 1.416e-02 3.120e-04
3.930e+00 1.427e-02 4.997e-04
3.940e+00 1.445e-02 7.112e-04
3.950e+00 1.469e-02 9.428e-04
3.960e+00 1.497e-02 1.191e-03
3.970e+00 1.529e-02 1.451e-03
3.980e+00 1.563e-02 1.719e-03
3.990e+00 1.598e-02 1.990e-03
4.000e+00 1.633e-02 2.256e-03
4.010e+00 1.667e-02 2.511e-03
4.020e+00 1.700e-02 2.748e-03
4.030e+00 1.731e-02 2.961e-03
4.040e+00 1.760e-02 3.145e-03
4.050e+00 1.787e-02 3.296e-03
4.060e+00 1.811e-02 3.415e-03
4.070e+00 1.834e-02 3.501e-03
4.080e+00 1.856e-02 3.556e-03
4.090e+00 1.876e-02 3.580e-03
4.100e+00 1.894e-02 3.575e-03
4.110e+00 1.910e-02 3.540e-03
4.120e+00 1.925e-02 3.477e-03
4.130e+00 1.937e-02 3.391e-03
4.140e+00 1.947e-02 3.287e-03
4.150e+00 1.955e-02 3.172e-03
4.160e+00 1.961e-02 3.053e-03
4.170e+00 1.964e-02 2.936e-03
4.180e+00 1.965e-02 2.823e-03
4.190e+00 1.965e-02 2.719e-03
4.200e+00 1.963e-02 2.629e-03
4.210e+00 1.960e-02 2.559e-03
4.220e+00 1.956e-02 2.513e-03
4.230e+00 1.952e-02 2.497e-03
4.240e+00 1.948e-02 2.512e-03
4.250e+00 1.943e-02 2.555e-03
4.260e+00 1.938e-02 2.624e-03
4.270e+00 1.934e-02 2.711e-03
4.280e+00 1.930e-02 2.807e-03
4.290e+00 1.926e-02 2.899e-03
4.300e+00 1.923e-02 2.975e-03
4.310e+00 1.922e-02 3.019e-03
4.320e+00 1.922e-02 3.018e-03
4.330e+00 1.925e-02 2.959e-03
4.340e+00 1.930e-02 2.838e-03
4.350e+00 1.939e-02 2.656e-03
4.360e+00 1.950e-02 2.423e-03
4.370e+00 1.962e-02 2.157e-03
4.380e+00 1.974e-02 1.875e-03
4.390e+00 1.986e-02 1.594e-03
4.400e+00 1.996e-02 1.327e-03
4.410e+00 2.003e-02 1.081e-03
4.420e+00 2.006e-02 8.587e-04
4.430e+00 2.005e-02 6.578e-04
4.440e+00 1.997e-02 4.702e-04
4.450e+00 1.983e-02 2.834e-04
4.460e+00 1.963e-02 8.233e-05
4.470e+00 1.939e-02 -1.476e-04
4.480e+00 1.910e-02 -4.176e-04
4.490e+00 1.878e-02 -7.339e-04
4.500e+00 1.843e-02 -1.095e-03
4.510e+00 1.806e-02 -1.492e-03
4.520e+00 1.769e-02 -1.909e-03
4.530e+00 1.732e-02 -2.327e-03
4.540e+00 1.695e-02 -2.731e-03
4.550e+00 1.660e-02 -3.107e-03
4.560e+00 1.626e-02 -3.445e-03
4.570e+00 1.595e-02 -3.738e-03
4.580e+00 1.566e-02 -3.982e-03
4.590e+00 1.539e-02 -4.174e-03
4.600e+00 1.516e-02 -4.313e-03
4.610e+00 1.496e-02 -4.397e-03
4.620e+00 1.478e-02 -4.425e-03
4.630e+00 1.465e-02 -4.398e-03
4.640e+00 1.455e-02 -4.316e-03
4.650e+00 1.448e-02 -4.184e-03
4.660e+00 1.445e-02 -4.012e-03
4.670e+00 1.445e-02 -3.809e-03
4.680e+00 1.449e-02 -3.585e-03
4.690e+00 1.455e-02 -3.349e-03
4.700e+00 1.465e-02 -3.106e-03
4.710e+00 1.476e-02 -2.860e-03
4.720e+00 1.489e-02 -2.613e-03
4.730e+00 1.502e-02 -2.368e-03
4.740e+00 1.514e-02 -2.126e-03
4.750e+00 1.525e-02 -1.886e-03
4.760e+00 1.533e-02 -1.650e-03
4.770e+00 1.538e-02 -1.418e-03
4.780e+00 1.539e-02 -1.191e-03
4.790e+00 1.536e-02 -9.713e-04
4.800e+00 1.529e-02 -7.613e-04
4.810e+00 1.520e-02 -5.640e-04
4.820e+00 1.508e-02 -3.832e-04
4.830e+00 1.494e-02 -2.222e-04
4.840e+00 1.479e-02 -8.404e-05
4.850e+00 1.464e-02 2.951e-05
4.860e+00 1.449e-02 1.178e-04
4.870e+00 1.434e-02 1.821e-04
4.880e+00 1.421e-02 2.256e-04
4.890e+00 1.410e-02 2.523e-04
4.900e+00 1.400e-02 2.645e-04
4.910e+00 1.393e-02 2.607e-04
4.920e+00 1.389e-02 2.346e-04
4.930e+00 1.386e-02 1.783e-04
4.940e+00 1.384e-02 8.593e-05
4.950e+00 1.384e-02 -4.446e-05
4.960e+00 1.384e-02 -2.108e-04
4.970e+00 1.384e-02 -4.079e-04
4.980e+00 1.384e-02 -6.298e-04
4.990e+00 1.384e-02 -8.702e-04
5.000e+00 1.382e-02 -1.124e-03
5.010e+00 1.380e-02 -1.389e-03
5.020e+00 1.377e-02 -1.662e-03
5.030e+00 1.374e-02 -1.942e-03
5.040e+00 1.369e-02 -2.229e-03
5.050e+00 1.364e-02 -2.525e-03
5.060e+00 1.359e-02 -2.828e-03
5.070e+00 1.352e-02 -3.139e-03
5.080e+00 1.343e-02 -3.452e-03
5.090e+00 1.333e-02 -3.759e-03
5.100e+00 1.320e-02 -4.047e-03
5.110e+00 1.303e-02 -4.306e-03
5.120e+00 1.283e-02 -4.525e-03
5.130e+00 1.259e-02 -4.700e-03
5.140e+00 1.230e-02 -4.833e-03
5.150e+00 1.198e-02 -4.930e-03
5.160e+00 1.162e-02 -4.995e-03
5.170e+00 1.123e-02 -5.037e-03
5.180e+00 1.082e-02 -5.059e-03
5.190e+00 1.038e-02 -5.069e-03
5.200e+00 9.933e-03 -5.071e-03
5.210e+00 9.480e-03 -5.065e-03
5.220e+00 9.031e-03 -5.053e-03
5.230e+00 8.593e-03 -5.032e-03
5.240e+00 8.174e-03 -5.001e-03
5.250e+00 7.778e-03 -4.955e-03
5.260e+00 7.407e-03 -4.893e-03
5.270e+00 7.060e-03 -4.813e-03
5.280e+00 6.738e-03 -4.712e-03
5.290e+00 6.438e-03 -4.591e-03
5.300e+00 6.160e-03 -4.447e-03
5.310e+00 5.901e-03 -4.282e-03
5.320e+00 5.665e-03 -4.093e-03
5.330e+00 5.450e-03 -3.882e-03
5.340e+00 5.261e-03 -3.649e-03
5.350e+00 5.097e-03 -3.393e-03
5.360e+00 4.958e-03 -3.115e-03
5.370e+00 4.840e-03 -2.817e-03
5.380e+00 4.739e-03 -2.500e-03
5.390e+00 4.652e-03 -2.167e-03
5.400e+00 4.578e-03 -1.818e-03
5.410e+00 4.516e-03 -1.457e-03
5.420e+00 4.463e-03 -1.086e-03
5.430e+00 4.418e-03 -7.098e-04
5.440e+00 4.380e-03 -3.336e-04
5.450e+00 4.347e-03 3.551e-05
5.460e+00 4.318e-03 3.898e-04
5.470e+00 4.292e-03 7.213e-04
5.480e+00 4.270e-03 1.023e-03
5.490e+00 4.250e-03 1.289e-03
5.500e+00 4.231e-03 1.517e-03
5.510e+00 4.212e-03 1.705e-03
5.520e+00 4.192e-03 1.854e-03
5.530e+00 4.170e-03 1.967e-03
5.540e+00 4.142e-03 2.047e-03
5.550e+00 4.109e-03 2.097e-03
5.560e+00 4.067e-03 2.121e-03
5.570e+00 4.016e-03 2.125e-03
5.580e+00 3.952e-03 2.113e-03
5.590e+00 3.875e-03 2.089e-03
5.600e+00 3.783e-03 2.057e-03
5.610e+00 3.676e-03 2.019e-03
5.620e+00 3.552e-03 1.979e-03
5.630e+00 3.413e-03 1.938e-03
5.640e+00 3.260e-03 1.896e-03
5.650e+00 3.094e-03 1.856e-03
5.660e+00 2.917e-03 1.817e-03
5.670e+00 2.732e-03 1.780e-03
5.680e+00 2.540e-03 1.744e-03
5.690e+00 2.345e-03 1.709e-03
5.700e+00 2.151e-03 1.677e-03
5.710e+00 1.962e-03 1.646e-03
5.720e+00 1.780e-03 1.618e-03
5.730e+00 1.607e-03 1.593e-03
5.740e+00 1.446e-03 1.572e-03
5.750e+00 1.298e-03 1.555e-03
5.760e+00 1.165e-03 1.544e-03
5.770e+00 1.049e-03 1.539e-03
5.780e+00 9.525e-04 1.542e-03
5.790e+00 8.774e-04 1.553e-03
5.800e+00 8.246e-04 1.574e-03
5.810e+00 7.932e-04 1.604e-03
5.820e+00 7.807e-04 1.643e-03
5.830e+00 7.821e-04 1.688e-03
5.840e+00 7.906e-04 1.735e-03
5.850e+00 7.981e-04 1.779e-03
5.860e+00 7.963e-04 1.811e-03
5.870e+00 7.773e-04 1.823e-03
5.880e+00 7.352e-04 1.805e-03
5.890e+00 6.672e-04 1.746e-03
5.900e+00 5.751e-04 1.641e-03
5.910e+00 4.643e-04 1.489e-03
5.920e+00 3.425e-04 1.294e-03
5.930e+00 2.173e-04 1.064e-03
5.940e+00 9.460e-05 8.068e-04
5.950e+00 -2.203e-05 5.301e-04
5.960e+00 -1.310e-04 2.397e-04
5.970e+00 -2.321e-04 -5.990e-05
5.980e+00 -3.263e-04 -3.658e-04
5.990e+00 -4.152e-04 -6.762e-04
6.000e+00 -5.016e-04 -9.902e-04
6.010e+00 -5.889e-04 -1.307e-03
6.020e+00 -6.809e-04 -1.626e-03
6.030e+00 -7.816e-04 -1.944e-03
6.040e+00 -8.947e-04 -2.255e-03
6.050e+00 -1.023e-03 -2.554e-03
6.060e+00 -1.168e-03 -2.830e-03
6.070e+00 -1.331e-03 -3.076e-03
6.080e+00 -1.511e-03 -3.282e-03
6.090e+00 -1.708e-03 -3.444e-03
6.100e+00 -1.919e-03 -3.558e-03
6.110e+00 -2.142e-03 -3.627e-03
6.120e+00 -2.374e-03 -3.654e-03
6.130e+00 -2.614e-03 -3.647e-03
6.140e+00 -2.858e-03 -3.616e-03
6.150e+00 -3.105e-03 -3.568e-03
6.160e+00 -3.351e-03 -3.513e-03
6.170e+00 -3.595e-03 -3.458e-03
6.180e+00 -3.831e-03 -3.408e-03
6.190e+00 -4.055e-03 -3.368e-03
6.200e+00 -4.261e-03 -3.340e-03
6.210e+00 -4.445e-03 -3.326e-03
6.220e+00 -4.603e-03 -3.328e-03
6.230e+00 -4.728e-03 -3.346e-03
6.240e+00 -4.820e-03 -3.381e-03
6.250e+00 -4.875e-03 -3.433e-03
6.260e+00 -4.896e-03 -3.501e-03
6.270e+00 -4.887e-03 -3.583e-03
6.280e+00 -4.855e-03 -3.673e-03
6.290e+00 -4.807e-03 -3.763e-03
6.300e+00 -4.748e-03 -3.849e-03
6.310e+00 -4.681e-03 -3.925e-03
6.320e+00 -4.607e-03 -3.989e-03
6.330e+00 -4.524e-03 -4.038e-03
6.340e+00 -4.430e-03 -4.074e-03
6.350e+00 -4.321e-03 -4.095e-03
6.360e+00 -4.197e-03 -4.102e-03
6.370e+00 -4.054e-03 -4.095e-03
6.380e+00 -3.893e-03 -4.073e-03
6.390e+00 -3.714e-03 -4.035e-03
6.400e+00 -3.517e-03 -3.980e-03
6.410e+00 -3.306e-03 -3.908e-03
6.420e+00 -3.081e-03 -3.820e-03
6.430e+00 -2.846e-03 -3.714e-03
6.440e+00 -2.604e-03 -3.592e-03
6.450e+00 -2.358e-03 -3.455e-03
6.460e+00 -2.111e-03 -3.302e-03
6.470e+00 -1.867e-03 -3.136e-03
6.480e+00 -1.630e-03 -2.958e-03
6.490e+00 -1.403e-03 -2.769e-03
