# Time (ps)      real(F_2)      im(F_2)
0.000e+00 9.996e-01 -5.420e-05
1.000e-02 1.000e+00 0.000e+00
2.000e-02 9.994e-01 2.437e-04
3.000e-02 9.978e-01 6.868e-04
4.000e-02 9.950e-01 1.315e-03
5.000e-02 9.911e-01 2.092e-03
6.000e-02 9.859e-01 2.967e-03
7.000e-02 9.796e-01 3.890e-03
8.000e-02 9.721e-01 4.827e-03
9.000e-02 9.638e-01 5.760e-03
1.000e-01 9.549e-01 6.679e-03
1.100e-01 9.454e-01 7.570e-03
1.200e-01 9.355e-01 8.412e-03
1.300e-01 9.253e-01 9.172e-03
1.400e-01 9.149e-01 9.814e-03
1.500e-01 9.042e-01 1.031e-02
1.600e-01 8.933e-01 1.062e-02
1.700e-01 8.822e-01 1.076e-02
1.800e-01 8.710e-01 1.070e-02
1.900e-01 8.597e-01 1.047e-02
2.000e-01 8.482e-01 1.008e-02
2.100e-01 8.367e-01 9.576e-03
2.200e-01 8.253e-01 8.996e-03
2.300e-01 8.138e-01 8.401e-03
2.400e-01 8.023e-01 7.851e-03
2.500e-01 7.909e-01 7.400e-03
2.600e-01 7.795e-01 7.082e-03
2.700e-01 7.682e-01 6.903e-03
2.800e-01 7.571e-01 6.848e-03
2.900e-01 7.460e-01 6.893e-03
3.000e-01 7.351e-01 7.018e-03
3.100e-01 7.244e-01 7.204e-03
3.200e-01 7.137e-01 7.434e-03
3.300e-01 7.032e-01 7.693e-03
3.400e-01 6.928e-01 7.970e-03
3.500e-01 6.824e-01 8.253e-03
3.600e-01 6.722e-01 8.535e-03
3.700e-01 6.620e-01 8.810e-03
3.800e-01 6.519e-01 9.073e-03
3.900e-01 6.419e-01 9.318e-03
4.000e-01 6.319e-01 9.539e-03
4.100e-01 6.220e-01 9.729e-03
4.200e-01 6.123e-01 9.882e-03
4.300e-01 6.026e-01 9.994e-03
4.400e-01 5.932e-01 1.006e-02
4.500e-01 5.839e-01 1.009e-02
4.600e-01 5.748e-01 1.006e-02
4.700e-01 5.659e-01 9.986e-03
4.800e-01 5.572e-01 9.849e-03
4.900e-01 5.486e-01 9.646e-03
5.000e-01 5.402e-01 9.375e-03
5.100e-01 5.319e-01 9.037e-03
5.200e-01 5.238e-01 8.639e-03
5.300e-01 5.157e-01 8.188e-03
5.400e-01 5.078e-01 7.696e-03
5.500e-01 5.001e-01 7.171e-03
5.600e-01 4.925e-01 6.623e-03
5.700e-01 4.851e-01 6.057e-03
5.800e-01 4.778e-01 5.476e-03
5.900e-01 4.707e-01 4.883e-03
6.000e-01 4.637e-01 4.282e-03
6.100e-01 4.568e-01 3.676e-03
6.200e-01 4.501e-01 3.071e-03
6.300e-01 4.435e-01 2.475e-03
6.400e-01 4.371e-01 1.896e-03
6.500e-01 4.308e-01 1.340e-03
6.600e-01 4.246e-01 8.147e-04
6.700e-01 4.186e-01 3.225e-04
6.800e-01 4.128e-01 -1.338e-04
6.900e-01 4.072e-01 -5.535e-04
7.000e-01 4.018e-01 -9.383e-04
7.100e-01 3.965e-01 -1.291e-03
7.200e-01 3.914e-01 -1.617e-03
7.300e-01 3.864e-01 -1.922e-03
7.400e-01 3.816e-01 -2.215e-03
7.500e-01 3.770e-01 -2.507e-03
7.600e-01 3.725e-01 -2.807e-03
7.700e-01 3.682e-01 -3.123e-03
7.800e-01 3.640e-01 -3.463e-03
7.900e-01 3.598e-01 -3.836e-03
8.000e-01 3.556e-01 -4.253e-03
8.100e-01 3.513e-01 -4.730e-03
8.200e-01 3.470e-01 -5.283e-03
8.300e-01 3.425e-01 -5.923e-03
8.400e-01 3.379e-01 -6.654e-03
8.500e-01 3.333e-01 -7.473e-03
8.600e-01 3.287e-01 -8.368e-03
8.700e-01 3.240e-01 -9.321e-03
8.800e-01 3.195e-01 -1.031e-02
8.900e-01 3.149e-01 -1.130e-02
9.000e-01 3.104e-01 -1.227e-02
9.100e-01 3.059e-01 -1.320e-02
9.200e-01 3.015e-01 -1.410e-02
9.300e-01 2.971e-01 -1.496e-02
9.400e-01 2.928e-01 -1.579e-02
9.500e-01 2.884e-01 -1.661e-02
9.600e-01 2.841e-01 -1.742e-02
9.700e-01 2.797e-01 -1.823e-02
9.800e-01 2.754e-01 -1.903e-02
9.900e-01 2.711e-01 -1.983e-02
1.000e+00 2.668e-01 -2.062e-02
1.010e+00 2.624e-01 -2.141e-02
1.020e+00 2.581e-01 -2.219e-02
1.030e+00 2.539e-01 -2.297e-02
1.040e+00 2.497e-01 -2.377e-02
1.050e+00 2.456e-01 -2.459e-02
1.060e+00 2.416e-01 -2.544e-02
1.070e+00 2.377e-01 -2.632e-02
1.080e+00 2.339e-01 -2.724e-02
1.090e+00 2.302e-01 -2.818e-02
1.100e+00 2.266e-01 -2.913e-02
1.110e+00 2.231e-01 -3.009e-02
1.120e+00 2.197e-01 -3.104e-02
1.130e+00 2.164e-01 -3.197e-02
1.140e+00 2.132e-01 -3.286e-02
1.150e+00 2.100e-01 -3.370e-02
1.160e+00 2.068e-01 -3.448e-02
1.170e+00 2.037e-01 -3.518e-02
1.180e+00 2.007e-01 -3.581e-02
1.190e+00 1.977e-01 -3.635e-02
1.200e+00 1.948e-01 -3.682e-02
1.210e+00 1.920e-01 -3.721e-02
1.220e+00 1.892e-01 -3.753e-02
1.230e+00 1.865e-01 -3.778e-02
1.240e+00 1.838e-01 -3.796e-02
1.250e+00 1.811e-01 -3.808e-02
1.260e+00 1.786e-01 -3.814e-02
1.270e+00 1.761e-01 -3.814e-02
1.280e+00 1.737e-01 -3.808e-02
1.290e+00 1.714e-01 -3.798e-02
1.300e+00 1.693e-01 -3.782e-02
1.310e+00 1.673e-01 -3.764e-02
1.320e+00 1.654e-01 -3.743e-02
1.330e+00 1.636e-01 -3.720e-02
1.340e+00 1.619e-01 -3.697e-02
1.350e+00 1.603e-01 -3.672e-02
1.360e+00 1.587e-01 -3.645e-02
1.370e+00 1.572e-01 -3.615e-02
1.380e+00 1.557e-01 -3.581e-02
1.390e+00 1.542e-01 -3.546e-02
1.400e+00 1.526e-01 -3.510e-02
1.410e+00 1.511e-01 -3.475e-02
1.420e+00 1.496e-01 -3.440e-02
1.430e+00 1.481e-01 -3.405e-02
1.440e+00 1.465e-01 -3.364e-02
1.450e+00 1.450e-01 -3.315e-02
1.460e+00 1.433e-01 -3.255e-02
1.470e+00 1.417e-01 -3.185e-02
1.480e+00 1.402e-01 -3.109e-02
1.490e+00 1.387e-01 -3.033e-02
1.500e+00 1.373e-01 -2.960e-02
1.510e+00 1.360e-01 -2.893e-02
1.520e+00 1.348e-01 -2.833e-02
1.530e+00 1.338e-01 -2.781e-02
1.540e+00 1.328e-01 -2.736e-02
1.550e+00 1.319e-01 -2.699e-02
1.560e+00 1.310e-01 -2.667e-02
1.570e+00 1.302e-01 -2.639e-02
1.580e+00 1.294e-01 -2.615e-02
1.590e+00 1.286e-01 -2.592e-02
1.600e+00 1.278e-01 -2.568e-02
1.610e+00 1.270e-01 -2.544e-02
1.620e+00 1.262e-01 -2.516e-02
1.630e+00 1.253e-01 -2.485e-02
1.640e+00 1.244e-01 -2.448e-02
1.650e+00 1.235e-01 -2.406e-02
1.660e+00 1.225e-01 -2.359e-02
1.670e+00 1.215e-01 -2.308e-02
1.680e+00 1.204e-01 -2.253e-02
1.690e+00 1.194e-01 -2.195e-02
1.700e+00 1.183e-01 -2.135e-02
1.710e+00 1.172e-01 -2.074e-02
1.720e+00 1.161e-01 -2.011e-02
1.730e+00 1.151e-01 -1.948e-02
1.740e+00 1.140e-01 -1.884e-02
1.750e+00 1.129e-01 -1.819e-02
1.760e+00 1.118e-01 -1.753e-02
1.770e+00 1.107e-01 -1.688e-02
1.780e+00 1.095e-01 -1.622e-02
1.790e+00 1.083e-01 -1.558e-02
1.800e+00 1.070e-01 -1.494e-02
1.810e+00 1.057e-01 -1.433e-02
1.820e+00 1.043e-01 -1.374e-02
1.830e+00 1.029e-01 -1.318e-02
1.840e+00 1.014e-01 -1.263e-02
1.850e+00 1.000e-01 -1.212e-02
1.860e+00 9.856e-02 -1.165e-02
1.870e+00 9.715e-02 -1.123e-02
1.880e+00 9.575e-02 -1.086e-02
1.890e+00 9.439e-02 -1.056e-02
1.900e+00 9.306e-02 -1.031e-02
1.910e+00 9.176e-02 -1.013e-02
1.920e+00 9.050e-02 -1.001e-02
1.930e+00 8.928e-02 -9.935e-03
1.940e+00 8.812e-02 -9.895e-03
1.950e+00 8.701e-02 -9.873e-03
1.960e+00 8.596e-02 -9.852e-03
1.970e+00 8.498e-02 -9.823e-03
1.980e+00 8.406e-02 -9.780e-03
1.990e+00 8.321e-02 -9.724e-03
2.000e+00 8.242e-02 -9.661e-03
2.010e+00 8.168e-02 -9.605e-03
2.020e+00 8.098e-02 -9.569e-03
2.030e+00 8.032e-02 -9.570e-03
2.040e+00 7.969e-02 -9.625e-03
2.050e+00 7.910e-02 -9.745e-03
2.060e+00 7.855e-02 -9.932e-03
2.070e+00 7.805e-02 -1.018e-02
2.080e+00 7.761e-02 -1.046e-02
2.090e+00 7.722e-02 -1.077e-02
2.100e+00 7.690e-02 -1.107e-02
2.110e+00 7.665e-02 -1.136e-02
2.120e+00 7.645e-02 -1.163e-02
2.130e+00 7.633e-02 -1.186e-02
2.140e+00 7.627e-02 -1.206e-02
2.150e+00 7.627e-02 -1.224e-02
2.160e+00 7.632e-02 -1.239e-02
2.170e+00 7.642e-02 -1.252e-02
2.180e+00 7.653e-02 -1.261e-02
2.190e+00 7.663e-02 -1.266e-02
2.200e+00 7.670e-02 -1.267e-02
2.210e+00 7.672e-02 -1.261e-02
2.220e+00 7.665e-02 -1.248e-02
2.230e+00 7.649e-02 -1.228e-02
2.240e+00 7.622e-02 -1.200e-02
2.250e+00 7.585e-02 -1.165e-02
2.260e+00 7.539e-02 -1.125e-02
2.270e+00 7.483e-02 -1.081e-02
2.280e+00 7.422e-02 -1.034e-02
2.290e+00 7.356e-02 -9.877e-03
2.300e+00 7.290e-02 -9.424e-03
2.310e+00 7.224e-02 -8.992e-03
2.320e+00 7.162e-02 -8.588e-03
2.330e+00 7.105e-02 -8.209e-03
2.340e+00 7.055e-02 -7.848e-03
2.350e+00 7.015e-02 -7.497e-03
2.360e+00 6.983e-02 -7.160e-03
2.370e+00 6.960e-02 -6.856e-03
2.380e+00 6.941e-02 -6.601e-03
2.390e+00 6.926e-02 -6.401e-03
2.400e+00 6.912e-02 -6.258e-03
2.410e+00 6.896e-02 -6.174e-03
2.420e+00 6.879e-02 -6.151e-03
2.430e+00 6.858e-02 -6.196e-03
2.440e+00 6.833e-02 -6.310e-03
2.450e+00 6.804e-02 -6.493e-03
2.460e+00 6.770e-02 -6.739e-03
2.470e+00 6.732e-02 -7.038e-03
2.480e+00 6.690e-02 -7.376e-03
2.490e+00 6.646e-02 -7.741e-03
2.500e+00 6.601e-02 -8.122e-03
2.510e+00 6.554e-02 -8.511e-03
2.520e+00 6.508e-02 -8.903e-03
2.530e+00 6.461e-02 -9.299e-03
2.540e+00 6.414e-02 -9.700e-03
2.550e+00 6.366e-02 -1.011e-02
2.560e+00 6.319e-02 -1.052e-02
2.570e+00 6.270e-02 -1.094e-02
2.580e+00 6.221e-02 -1.137e-02
2.590e+00 6.171e-02 -1.179e-02
2.600e+00 6.120e-02 -1.221e-02
2.610e+00 6.068e-02 -1.260e-02
2.620e+00 6.015e-02 -1.296e-02
2.630e+00 5.961e-02 -1.328e-02
2.640e+00 5.908e-02 -1.355e-02
2.650e+00 5.856e-02 -1.377e-02
2.660e+00 5.806e-02 -1.392e-02
2.670e+00 5.759e-02 -1.402e-02
2.680e+00 5.715e-02 -1.406e-02
2.690e+00 5.674e-02 -1.406e-02
2.700e+00 5.636e-02 -1.402e-02
2.710e+00 5.602e-02 -1.396e-02
2.720e+00 5.571e-02 -1.387e-02
2.730e+00 5.543e-02 -1.376e-02
2.740e+00 5.518e-02 -1.364e-02
2.750e+00 5.496e-02 -1.352e-02
2.760e+00 5.477e-02 -1.338e-02
2.770e+00 5.461e-02 -1.324e-02
2.780e+00 5.447e-02 -1.308e-02
2.790e+00 5.435e-02 -1.292e-02
2.800e+00 5.426e-02 -1.274e-02
2.810e+00 5.419e-02 -1.254e-02
2.820e+00 5.415e-02 -1.234e-02
2.830e+00 5.414e-02 -1.212e-02
2.840e+00 5.416e-02 -1.188e-02
2.850e+00 5.419e-02 -1.162e-02
2.860e+00 5.423e-02 -1.135e-02
2.870e+00 5.427e-02 -1.107e-02
2.880e+00 5.430e-02 -1.077e-02
2.890e+00 5.434e-02 -1.047e-02
2.900e+00 5.437e-02 -1.016e-02
2.910e+00 5.440e-02 -9.846e-03
2.920e+00 5.443e-02 -9.530e-03
2.930e+00 5.447e-02 -9.214e-03
2.940e+00 5.451e-02 -8.897e-03
2.950e+00 5.456e-02 -8.584e-03
2.960e+00 5.462e-02 -8.280e-03
2.970e+00 5.467e-02 -7.989e-03
2.980e+00 5.472e-02 -7.715e-03
2.990e+00 5.476e-02 -7.459e-03
3.000e+00 5.477e-02 -7.220e-03
3.010e+00 5.476e-02 -6.998e-03
3.020e+00 5.470e-02 -6.788e-03
3.030e+00 5.459e-02 -6.589e-03
3.040e+00 5.441e-02 -6.398e-03
3.050e+00 5.416e-02 -6.216e-03
3.060e+00 5.382e-02 -6.045e-03
3.070e+00 5.340e-02 -5.889e-03
3.080e+00 5.289e-02 -5.750e-03
3.090e+00 5.229e-02 -5.631e-03
3.100e+00 5.163e-02 -5.535e-03
3.110e+00 5.091e-02 -5.463e-03
3.120e+00 5.015e-02 -5.416e-03
3.130e+00 4.937e-02 -5.394e-03
3.140e+00 4.858e-02 -5.396e-03
3.150e+00 4.778e-02 -5.419e-03
3.160e+00 4.700e-02 -5.460e-03
3.170e+00 4.623e-02 -5.517e-03
3.180e+00 4.548e-02 -5.583e-03
3.190e+00 4.476e-02 -5.654e-03
3.200e+00 4.406e-02 -5.723e-03
3.210e+00 4.338e-02 -5.784e-03
3.220e+00 4.271e-02 -5.831e-03
3.230e+00 4.206e-02 -5.859e-03
3.240e+00 4.142e-02 -5.864e-03
3.250e+00 4.078e-02 -5.844e-03
3.260e+00 4.016e-02 -5.797e-03
3.270e+00 3.955e-02 -5.727e-03
3.280e+00 3.896e-02 -5.639e-03
3.290e+00 3.839e-02 -5.536e-03
3.300e+00 3.783e-02 -5.422e-03
3.310e+00 3.729e-02 -5.299e-03
3.320e+00 3.676e-02 -5.168e-03
3.330e+00 3.625e-02 -5.028e-03
3.340e+00 3.573e-02 -4.878e-03
3.350e+00 3.523e-02 -4.716e-03
3.360e+00 3.472e-02 -4.541e-03
3.370e+00 3.423e-02 -4.353e-03
3.380e+00 3.374e-02 -4.155e-03
3.390e+00 3.325e-02 -3.954e-03
3.400e+00 3.277e-02 -3.757e-03
3.410e+00 3.230e-02 -3.577e-03
3.420e+00 3.182e-02 -3.423e-03
3.430e+00 3.134e-02 -3.306e-03
3.440e+00 3.086e-02 -3.231e-03
3.450e+00 3.037e-02 -3.205e-03
3.460e+00 2.987e-02 -3.228e-03
3.470e+00 2.938e-02 -3.300e-03
3.480e+00 2.887e-02 -3.419e-03
3.490e+00 2.837e-02 -3.580e-03
3.500e+00 2.786e-02 -3.777e-03
3.510e+00 2.735e-02 -4.004e-03
3.520e+00 2.684e-02 -4.253e-03
3.530e+00 2.633e-02 -4.515e-03
3.540e+00 2.582e-02 -4.781e-03
3.550e+00 2.531e-02 -5.044e-03
3.560e+00 2.481e-02 -5.294e-03
3.570e+00 2.430e-02 -5.527e-03
3.580e+00 2.379e-02 -5.735e-03
3.590e+00 2.328e-02 -5.917e-03
3.600e+00 2.276e-02 -6.074e-03
3.610e+00 2.225e-02 -6.210e-03
3.620e+00 2.173e-02 -6.332e-03
3.630e+00 2.122e-02 -6.450e-03
3.640e+00 2.070e-02 -6.572e-03
3.650e+00 2.018e-02 -6.708e-03
3.660e+00 1.968e-02 -6.862e-03
3.670e+00 1.919e-02 -7.041e-03
3.680e+00 1.871e-02 -7.246e-03
3.690e+00 1.824e-02 -7.478e-03
3.700e+00 1.780e-02 -7.732e-03
3.710e+00 1.736e-02 -8.006e-03
3.720e+00 1.693e-02 -8.293e-03
3.730e+00 1.651e-02 -8.589e-03
3.740e+00 1.610e-02 -8.889e-03
3.750e+00 1.570e-02 -9.186e-03
3.760e+00 1.533e-02 -9.475e-03
3.770e+00 1.497e-02 -9.752e-03
3.780e+00 1.463e-02 -1.001e-02
3.790e+00 1.430e-02 -1.025e-02
3.800e+00 1.399e-02 -1.046e-02
3.810e+00 1.370e-02 -1.064e-02
3.820e+00 1.342e-02 -1.079e-02
3.830e+00 1.316e-02 -1.089e-02
3.840e+00 1.293e-02 -1.095e-02
3.850e+00 1.275e-02 -1.097e-02
3.860e+00 1.261e-02 -1.093e-02
3.870e+00 1.252e-02 -1.086e-02
3.880e+00 1.248e-02 -1.075e-02
3.890e+00 1.248e-02 -1.062e-02
3.900e+00 1.250e-02 -1.048e-02
3.910e+00 1.254e-02 -1.035e-02
3.920e+00 1.258e-02 -1.021e-02
3.930e+00 1.262e-02 -1.009e-02
3.940e+00 1.265e-02 -9.966e-03
3.950e+00 1.268e-02 -9.844e-03
3.960e+00 1.269e-02 -9.721e-03
3.970e+00 1.269e-02 -9.593e-03
3.980e+00 1.267e-02 -9.458e-03
3.990e+00 1.263e-02 -9.316e-03
4.000e+00 1.257e-02 -9.164e-03
4.010e+00 1.250e-02 -9.003e-03
4.020e+00 1.240e-02 -8.831e-03
4.030e+00 1.227e-02 -8.649e-03
4.040e+00 1.212e-02 -8.456e-03
4.050e+00 1.195e-02 -8.253e-03
4.060e+00 1.175e-02 -8.040e-03
4.070e+00 1.153e-02 -7.820e-03
4.080e+00 1.129e-02 -7.591e-03
4.090e+00 1.102e-02 -7.356e-03
4.100e+00 1.074e-02 -7.114e-03
4.110e+00 1.043e-02 -6.866e-03
4.120e+00 1.011e-02 -6.612e-03
4.130e+00 9.761e-03 -6.353e-03
4.140e+00 9.400e-03 -6.088e-03
4.150e+00 9.026e-03 -5.818e-03
4.160e+00 8.643e-03 -5.540e-03
4.170e+00 8.254e-03 -5.254e-03
4.180e+00 7.863e-03 -4.957e-03
4.190e+00 7.468e-03 -4.645e-03
4.200e+00 7.071e-03 -4.314e-03
4.210e+00 6.672e-03 -3.961e-03
4.220e+00 6.270e-03 -3.582e-03
4.230e+00 5.866e-03 -3.177e-03
4.240e+00 5.461e-03 -2.748e-03
4.250e+00 5.057e-03 -2.301e-03
4.260e+00 4.659e-03 -1.844e-03
4.270e+00 4.272e-03 -1.391e-03
4.280e+00 3.902e-03 -9.519e-04
4.290e+00 3.560e-03 -5.402e-04
4.300e+00 3.254e-03 -1.664e-04
4.310e+00 2.995e-03 1.600e-04
4.320e+00 2.786e-03 4.313e-04
4.330e+00 2.628e-03 6.429e-04
4.340e+00 2.514e-03 7.963e-04
4.350e+00 2.432e-03 9.001e-04
4.360e+00 2.366e-03 9.712e-04
4.370e+00 2.303e-03 1.031e-03
4.380e+00 2.229e-03 1.099e-03
4.390e+00 2.138e-03 1.189e-03
4.400e+00 2.025e-03 1.306e-03
4.410e+00 1.887e-03 1.448e-03
4.420e+00 1.723e-03 1.613e-03
4.430e+00 1.534e-03 1.800e-03
4.440e+00 1.319e-03 2.011e-03
4.450e+00 1.083e-03 2.249e-03
4.460e+00 8.334e-04 2.513e-03
4.470e+00 5.804e-04 2.797e-03
4.480e+00 3.352e-04 3.091e-03
4.490e+00 1.081e-04 3.384e-03
4.500e+00 -9.212e-05 3.669e-03
4.510e+00 -2.578e-04 3.941e-03
4.520e+00 -3.827e-04 4.196e-03
4.530e+00 -4.625e-04 4.428e-03
4.540e+00 -4.950e-04 4.634e-03
4.550e+00 -4.801e-04 4.807e-03
4.560e+00 -4.194e-04 4.942e-03
4.570e+00 -3.164e-04 5.035e-03
4.580e+00 -1.766e-04 5.083e-03
4.590e+00 -6.684e-06 5.084e-03
4.600e+00 1.852e-04 5.039e-03
4.610e+00 3.904e-04 4.952e-03
4.620e+00 6.001e-04 4.829e-03
4.630e+00 8.064e-04 4.675e-03
4.640e+00 1.002e-03 4.497e-03
4.650e+00 1.183e-03 4.302e-03
4.660e+00 1.346e-03 4.096e-03
4.670e+00 1.490e-03 3.884e-03
4.680e+00 1.615e-03 3.670e-03
4.690e+00 1.726e-03 3.456e-03
4.700e+00 1.828e-03 3.244e-03
4.710e+00 1.927e-03 3.034e-03
4.720e+00 2.031e-03 2.827e-03
4.730e+00 2.147e-03 2.624e-03
4.740e+00 2.284e-03 2.424e-03
4.750e+00 2.447e-03 2.229e-03
4.760e+00 2.641e-03 2.040e-03
4.770e+00 2.870e-03 1.858e-03
4.780e+00 3.134e-03 1.685e-03
4.790e+00 3.433e-03 1.518e-03
4.800e+00 3.764e-03 1.357e-03
4.810e+00 4.124e-03 1.199e-03
4.820e+00 4.506e-03 1.038e-03
4.830e+00 4.905e-03 8.710e-04
4.840e+00 5.314e-03 6.968e-04
4.850e+00 5.727e-03 5.158e-04
4.860e+00 6.141e-03 3.302e-04
4.870e+00 6.555e-03 1.437e-04
4.880e+00 6.972e-03 -4.070e-05
4.890e+00 7.392e-03 -2.204e-04
4.900e+00 7.819e-03 -3.945e-04
4.910e+00 8.256e-03 -5.629e-04
4.920e+00 8.705e-03 -7.269e-04
4.930e+00 9.168e-03 -8.877e-04
4.940e+00 9.645e-03 -1.046e-03
4.950e+00 1.014e-02 -1.202e-03
4.960e+00 1.064e-02 -1.354e-03
4.970e+00 1.115e-02 -1.500e-03
4.980e+00 1.166e-02 -1.638e-03
4.990e+00 1.218e-02 -1.768e-03
5.000e+00 1.270e-02 -1.887e-03
5.010e+00 1.322e-02 -1.996e-03
5.020e+00 1.373e-02 -2.092e-03
5.030e+00 1.424e-02 -2.174e-03
5.040e+00 1.474e-02 -2.241e-03
5.050e+00 1.524e-02 -2.294e-03
5.060e+00 1.573e-02 -2.336e-03
5.070e+00 1.620e-02 -2.371e-03
5.080e+00 1.666e-02 -2.406e-03
5.090e+00 1.710e-02 -2.450e-03
5.100e+00 1.751e-02 -2.509e-03
5.110e+00 1.789e-02 -2.589e-03
5.120e+00 1.824e-02 -2.688e-03
5.130e+00 1.855e-02 -2.803e-03
5.140e+00 1.882e-02 -2.924e-03
5.150e+00 1.905e-02 -3.041e-03
5.160e+00 1.925e-02 -3.146e-03
5.170e+00 1.941e-02 -3.230e-03
5.180e+00 1.953e-02 -3.288e-03
5.190e+00 1.961e-02 -3.314e-03
5.200e+00 1.966e-02 -3.306e-03
5.210e+00 1.967e-02 -3.261e-03
5.220e+00 1.965e-02 -3.183e-03
5.230e+00 1.960e-02 -3.075e-03
5.240e+00 1.954e-02 -2.944e-03
5.250e+00 1.948e-02 -2.798e-03
5.260e+00 1.941e-02 -2.644e-03
5.270e+00 1.935e-02 -2.486e-03
5.280e+00 1.930e-02 -2.328e-03
5.290e+00 1.927e-02 -2.174e-03
5.300e+00 1.925e-02 -2.026e-03
5.310e+00 1.923e-02 -1.889e-03
5.320e+00 1.922e-02 -1.767e-03
5.330e+00 1.922e-02 -1.662e-03
5.340e+00 1.920e-02 -1.577e-03
5.350e+00 1.917e-02 -1.513e-03
5.360e+00 1.912e-02 -1.473e-03
5.370e+00 1.904e-02 -1.458e-03
5.380e+00 1.893e-02 -1.467e-03
5.390e+00 1.878e-02 -1.500e-03
5.400e+00 1.860e-02 -1.554e-03
5.410e+00 1.840e-02 -1.626e-03
5.420e+00 1.816e-02 -1.712e-03
5.430e+00 1.791e-02 -1.809e-03
5.440e+00 1.764e-02 -1.915e-03
5.450e+00 1.736e-02 -2.029e-03
5.460e+00 1.709e-02 -2.146e-03
5.470e+00 1.683e-02 -2.263e-03
5.480e+00 1.657e-02 -2.379e-03
5.490e+00 1.634e-02 -2.488e-03
5.500e+00 1.612e-02 -2.590e-03
5.510e+00 1.592e-02 -2.682e-03
5.520e+00 1.573e-02 -2.762e-03
5.530e+00 1.556e-02 -2.829e-03
5.540e+00 1.541e-02 -2.884e-03
5.550e+00 1.526e-02 -2.927e-03
5.560e+00 1.512e-02 -2.958e-03
5.570e+00 1.498e-02 -2.980e-03
5.580e+00 1.485e-02 -2.995e-03
5.590e+00 1.472e-02 -3.003e-03
5.600e+00 1.458e-02 -3.009e-03
5.610e+00 1.444e-02 -3.013e-03
5.620e+00 1.430e-02 -3.020e-03
5.630e+00 1.415e-02 -3.032e-03
5.640e+00 1.400e-02 -3.052e-03
5.650e+00 1.385e-02 -3.081e-03
5.660e+00 1.370e-02 -3.121e-03
5.670e+00 1.355e-02 -3.173e-03
5.680e+00 1.340e-02 -3.236e-03
5.690e+00 1.324e-02 -3.312e-03
5.700e+00 1.307e-02 -3.400e-03
5.710e+00 1.290e-02 -3.501e-03
5.720e+00 1.271e-02 -3.613e-03
5.730e+00 1.250e-02 -3.735e-03
5.740e+00 1.229e-02 -3.864e-03
5.750e+00 1.205e-02 -4.000e-03
5.760e+00 1.181e-02 -4.138e-03
5.770e+00 1.155e-02 -4.275e-03
5.780e+00 1.128e-02 -4.409e-03
5.790e+00 1.099e-02 -4.536e-03
5.800e+00 1.071e-02 -4.652e-03
5.810e+00 1.041e-02 -4.754e-03
5.820e+00 1.013e-02 -4.837e-03
5.830e+00 9.846e-03 -4.901e-03
5.840e+00 9.584e-03 -4.943e-03
5.850e+00 9.348e-03 -4.963e-03
5.860e+00 9.144e-03 -4.961e-03
5.870e+00 8.976e-03 -4.939e-03
5.880e+00 8.850e-03 -4.897e-03
5.890e+00 8.765e-03 -4.840e-03
5.900e+00 8.721e-03 -4.770e-03
5.910e+00 8.714e-03 -4.694e-03
5.920e+00 8.738e-03 -4.616e-03
5.930e+00 8.786e-03 -4.542e-03
5.940e+00 8.854e-03 -4.474e-03
5.950e+00 8.935e-03 -4.413e-03
5.960e+00 9.027e-03 -4.361e-03
5.970e+00 9.125e-03 -4.317e-03
5.980e+00 9.228e-03 -4.280e-03
5.990e+00 9.333e-03 -4.249e-03
6.000e+00 9.439e-03 -4.223e-03
6.010e+00 9.544e-03 -4.202e-03
6.020e+00 9.646e-03 -4.185e-03
6.030e+00 9.747e-03 -4.170e-03
6.040e+00 9.845e-03 -4.156e-03
6.050e+00 9.942e-03 -4.141e-03
6.060e+00 1.004e-02 -4.121e-03
6.070e+00 1.013e-02 -4.092e-03
6.080e+00 1.022e-02 -4.053e-03
6.090e+00 1.030e-02 -3.999e-03
6.100e+00 1.038e-02 -3.931e-03
6.110e+00 1.046e-02 -3.846e-03
6.120e+00 1.053e-02 -3.748e-03
6.130e+00 1.059e-02 -3.637e-03
6.140e+00 1.064e-02 -3.516e-03
6.150e+00 1.067e-02 -3.390e-03
6.160e+00 1.070e-02 -3.264e-03
6.170e+00 1.071e-02 -3.143e-03
6.180e+00 1.072e-02 -3.029e-03
6.190e+00 1.072e-02 -2.925e-03
6.200e+00 1.072e-02 -2.828e-03
6.210e+00 1.072e-02 -2.736e-03
6.220e+00 1.072e-02 -2.646e-03
6.230e+00 1.072e-02 -2.556e-03
6.240e+00 1.072e-02 -2.465e-03
6.250e+00 1.071e-02 -2.374e-03
6.260e+00 1.070e-02 -2.281e-03
6.270e+00 1.069e-02 -2.189e-03
6.280e+00 1.068e-02 -2.099e-03
6.290e+00 1.067e-02 -2.015e-03
6.300e+00 1.067e-02 -1.938e-03
6.310e+00 1.067e-02 -1.873e-03
6.320e+00 1.068e-02 -1.817e-03
6.330e+00 1.069e-02 -1.768e-03
6.340e+00 1.068e-02 -1.722e-03
6.350e+00 1.064e-02 -1.673e-03
6.360e+00 1.058e-02 -1.619e-03
6.370e+00 1.049e-02 -1.559e-03
6.380e+00 1.037e-02 -1.491e-03
6.390e+00 1.022e-02 -1.415e-03
6.400e+00 1.005e-02 -1.331e-03
6.410e+00 9.854e-03 -1.240e-03
6.420e+00 9.643e-03 -1.141e-03
6.430e+00 9.421e-03 -1.036e-03
6.440e+00 9.191e-03 -9.255e-04
6.450e+00 8.958e-03 -8.090e-04
6.460e+00 8.721e-03 -6.872e-04
